id,muscle reading 1 sensor 1,muscle reading 1 sensor 2,muscle reading 1 sensor 3,muscle reading 1 sensor 4,muscle reading 1 sensor 5,muscle reading 1 sensor 6,muscle reading 1 sensor 7,muscle reading 1 sensor 8,muscle reading 2 sensor 1,muscle reading 2 sensor 2,muscle reading 2 sensor 3,muscle reading 2 sensor 4,muscle reading 2 sensor 5,muscle reading 2 sensor 6,muscle reading 2 sensor 7,muscle reading 2 sensor 8,muscle reading 3 sensor 1,muscle reading 3 sensor 2,muscle reading 3 sensor 3,muscle reading 3 sensor 4,muscle reading 3 sensor 5,muscle reading 3 sensor 6,muscle reading 3 sensor 7,muscle reading 3 sensor 8,muscle reading 4 sensor 1,muscle reading 4 sensor 2,muscle reading 4 sensor 3,muscle reading 4 sensor 4,muscle reading 4 sensor 5,muscle reading 4 sensor 6,muscle reading 4 sensor 7,muscle reading 4 sensor 8,muscle reading 5 sensor 1,muscle reading 5 sensor 2,muscle reading 5 sensor 3,muscle reading 5 sensor 4,muscle reading 5 sensor 5,muscle reading 5 sensor 6,muscle reading 5 sensor 7,muscle reading 5 sensor 8,muscle reading 6 sensor 1,muscle reading 6 sensor 2,muscle reading 6 sensor 3,muscle reading 6 sensor 4,muscle reading 6 sensor 5,muscle reading 6 sensor 6,muscle reading 6 sensor 7,muscle reading 6 sensor 8,muscle reading 7 sensor 1,muscle reading 7 sensor 2,muscle reading 7 sensor 3,muscle reading 7 sensor 4,muscle reading 7 sensor 5,muscle reading 7 sensor 6,muscle reading 7 sensor 7,muscle reading 7 sensor 8,muscle reading 8 sensor 1,muscle reading 8 sensor 2,muscle reading 8 sensor 3,muscle reading 8 sensor 4,muscle reading 8 sensor 5,muscle reading 8 sensor 6,muscle reading 8 sensor 7,muscle reading 8 sensor 8
0,26.0,4.0,5.0,8.0,-1.0,-13.0,-109.0,-66.0,-9.0,2.0,4.0,13.0,-18.0,-30.0,-119.0,-45.0,17.0,6.0,-1.0,-9.0,27.0,20.0,91.0,71.0,-26.0,-1.0,0.0,1.0,13.0,20.0,-62.0,-19.0,29.0,2.0,2.0,0.0,-23.0,-1.0,-80.0,4.0,-7.0,-6.0,-12.0,-27.0,-11.0,-16.0,-67.0,-8.0,-27.0,1.0,1.0,13.0,-8.0,-11.0,21.0,-28.0,61.0,4.0,8.0,5.0,4.0,-7.0,-59.0,16.0
1,-47.0,-6.0,-5.0,-7.0,13.0,-1.0,35.0,-10.0,10.0,-4.0,0.0,7.0,-31.0,-33.0,-48.0,-52.0,34.0,10.0,5.0,-9.0,23.0,63.0,76.0,49.0,-27.0,-7.0,-7.0,-3.0,0.0,4.0,-111.0,-2.0,-7.0,7.0,11.0,11.0,2.0,2.0,76.0,3.0,7.0,-2.0,0.0,-6.0,21.0,-3.0,0.0,-8.0,-40.0,-4.0,-1.0,6.0,-2.0,-2.0,-105.0,-25.0,47.0,6.0,6.0,5.0,13.0,21.0,111.0,15.0
2,-19.0,-8.0,-8.0,-8.0,-21.0,-6.0,-79.0,12.0,0.0,5.0,4.0,16.0,24.0,9.0,33.0,34.0,-1.0,-4.0,-3.0,-6.0,-7.0,-11.0,-85.0,-12.0,-10.0,-2.0,-3.0,-2.0,-8.0,-30.0,-16.0,-22.0,-21.0,-7.0,-8.0,-12.0,-14.0,-18.0,-76.0,-44.0,27.0,7.0,4.0,-4.0,-10.0,23.0,127.0,69.0,-25.0,-12.0,-9.0,1.0,18.0,-33.0,-128.0,-83.0,7.0,7.0,1.0,-8.0,7.0,21.0,114.0,48.0
3,2.0,3.0,0.0,2.0,0.0,22.0,106.0,-14.0,-16.0,-2.0,-3.0,-4.0,18.0,21.0,-9.0,2.0,-8.0,0.0,3.0,5.0,-14.0,-15.0,13.0,-13.0,11.0,-4.0,-5.0,-8.0,-30.0,-27.0,-128.0,-22.0,-3.0,-5.0,-8.0,0.0,25.0,-9.0,-28.0,2.0,-22.0,8.0,8.0,-2.0,2.0,12.0,53.0,20.0,28.0,-9.0,-5.0,-5.0,-7.0,-7.0,-54.0,-38.0,-11.0,4.0,7.0,11.0,33.0,39.0,119.0,43.0
4,6.0,0.0,0.0,-2.0,-14.0,10.0,-51.0,5.0,7.0,0.0,4.0,13.0,13.0,-16.0,-45.0,-7.0,-84.0,-8.0,-3.0,-4.0,-36.0,-26.0,-128.0,-55.0,75.0,3.0,-8.0,-12.0,14.0,12.0,87.0,56.0,-3.0,2.0,0.0,-7.0,4.0,15.0,-13.0,0.0,-15.0,1.0,3.0,8.0,-2.0,-6.0,-55.0,-24.0,1.0,5.0,5.0,2.0,11.0,12.0,60.0,38.0,-35.0,-8.0,2.0,6.0,-13.0,-24.0,-112.0,-69.0
5,15.0,-5.0,-5.0,-15.0,12.0,-22.0,-38.0,36.0,9.0,6.0,-2.0,-4.0,6.0,61.0,84.0,70.0,23.0,4.0,2.0,8.0,4.0,14.0,-71.0,13.0,-46.0,-3.0,-6.0,-3.0,-8.0,-16.0,-99.0,-37.0,14.0,-1.0,0.0,2.0,-4.0,-16.0,13.0,-7.0,-23.0,-4.0,5.0,16.0,4.0,-7.0,21.0,-16.0,47.0,-2.0,-7.0,-28.0,13.0,-11.0,22.0,-26.0,5.0,6.0,6.0,11.0,5.0,30.0,-48.0,25.0
6,-12.0,-5.0,-1.0,4.0,-16.0,-17.0,-69.0,-16.0,-12.0,-3.0,-4.0,-6.0,13.0,2.0,72.0,22.0,3.0,-5.0,-4.0,-11.0,-35.0,-15.0,-46.0,-15.0,-21.0,2.0,5.0,8.0,34.0,30.0,69.0,15.0,48.0,2.0,-4.0,-13.0,-14.0,18.0,-3.0,1.0,-9.0,-1.0,2.0,3.0,-4.0,-10.0,-80.0,-21.0,-8.0,5.0,5.0,8.0,8.0,-3.0,-76.0,1.0,-36.0,-10.0,-12.0,-16.0,-12.0,-47.0,6.0,-30.0
7,43.0,0.0,-2.0,6.0,11.0,26.0,51.0,27.0,-9.0,-2.0,-1.0,-2.0,17.0,20.0,-79.0,-46.0,10.0,6.0,5.0,10.0,-9.0,-10.0,29.0,73.0,-16.0,-7.0,-5.0,-1.0,-13.0,-24.0,-115.0,-61.0,-28.0,1.0,4.0,7.0,18.0,4.0,127.0,46.0,-7.0,-11.0,-7.0,-7.0,-23.0,-14.0,-72.0,-76.0,49.0,9.0,7.0,10.0,17.0,45.0,127.0,41.0,15.0,4.0,10.0,25.0,9.0,13.0,73.0,47.0
8,-26.0,-9.0,-18.0,-60.0,-23.0,-35.0,-85.0,-40.0,27.0,10.0,8.0,16.0,38.0,82.0,109.0,72.0,-33.0,-2.0,-1.0,8.0,-1.0,4.0,-84.0,-14.0,33.0,-3.0,-4.0,-7.0,-15.0,-18.0,-92.0,-2.0,-57.0,2.0,7.0,10.0,5.0,-24.0,-128.0,-24.0,58.0,-1.0,0.0,0.0,9.0,-9.0,106.0,19.0,-3.0,-4.0,-5.0,-13.0,0.0,-1.0,23.0,-17.0,-7.0,-1.0,2.0,10.0,-6.0,7.0,-2.0,-1.0
9,-34.0,3.0,9.0,29.0,6.0,-25.0,-124.0,-1.0,12.0,-6.0,-20.0,-66.0,-10.0,-3.0,80.0,23.0,-4.0,0.0,-1.0,8.0,10.0,17.0,16.0,0.0,-19.0,-4.0,-5.0,9.0,15.0,9.0,36.0,-11.0,27.0,1.0,0.0,-9.0,-16.0,4.0,-45.0,-5.0,2.0,-2.0,0.0,15.0,13.0,11.0,35.0,23.0,-44.0,-4.0,2.0,-2.0,-26.0,-33.0,7.0,-6.0,41.0,0.0,-10.0,-17.0,21.0,3.0,42.0,11.0
10,-1.0,0.0,6.0,37.0,21.0,22.0,-15.0,-36.0,-10.0,-3.0,-6.0,-24.0,-31.0,-7.0,-49.0,-6.0,-26.0,-4.0,-4.0,5.0,12.0,1.0,20.0,8.0,-15.0,-3.0,-3.0,-14.0,0.0,-12.0,-83.0,-8.0,-11.0,-2.0,-2.0,1.0,-29.0,-4.0,127.0,46.0,14.0,4.0,7.0,13.0,20.0,16.0,-30.0,1.0,-11.0,-7.0,-7.0,-2.0,-18.0,-51.0,-107.0,-73.0,33.0,14.0,11.0,7.0,26.0,60.0,127.0,105.0
11,-10.0,-4.0,-2.0,6.0,-7.0,-9.0,-116.0,-16.0,-33.0,1.0,0.0,-5.0,-7.0,-1.0,-33.0,0.0,60.0,-1.0,-5.0,-12.0,2.0,3.0,-7.0,-8.0,-21.0,-7.0,-2.0,15.0,-29.0,-39.0,-128.0,-93.0,-1.0,-5.0,-11.0,-28.0,29.0,10.0,78.0,37.0,-23.0,-3.0,5.0,26.0,-15.0,-7.0,12.0,-3.0,19.0,11.0,8.0,12.0,26.0,38.0,76.0,67.0,-41.0,-5.0,-6.0,-15.0,-4.0,7.0,-87.0,-49.0
12,52.0,1.0,-2.0,-1.0,-19.0,-22.0,-38.0,-2.0,2.0,0.0,3.0,5.0,11.0,-12.0,-16.0,-22.0,-2.0,3.0,1.0,-7.0,-1.0,10.0,87.0,3.0,-10.0,0.0,-2.0,-19.0,16.0,4.0,-21.0,9.0,-16.0,3.0,4.0,2.0,-10.0,31.0,25.0,15.0,-4.0,-9.0,-4.0,9.0,2.0,-47.0,-128.0,-102.0,23.0,2.0,5.0,2.0,-33.0,-14.0,-128.0,20.0,31.0,20.0,14.0,8.0,76.0,83.0,127.0,127.0
13,-18.0,-3.0,-4.0,-12.0,-7.0,13.0,-94.0,-64.0,16.0,1.0,0.0,6.0,-10.0,-1.0,-127.0,-24.0,-14.0,-3.0,-3.0,2.0,-5.0,-13.0,10.0,0.0,-8.0,-7.0,-2.0,5.0,-16.0,-31.0,64.0,-9.0,1.0,5.0,6.0,7.0,14.0,2.0,11.0,6.0,-28.0,0.0,-4.0,-7.0,-2.0,-9.0,-16.0,42.0,30.0,-5.0,-8.0,-16.0,-5.0,0.0,0.0,-14.0,2.0,-1.0,1.0,3.0,8.0,21.0,15.0,-13.0
14,11.0,0.0,-1.0,8.0,3.0,-7.0,-26.0,-10.0,-18.0,2.0,6.0,15.0,13.0,21.0,114.0,27.0,-47.0,-6.0,-3.0,1.0,3.0,-27.0,-128.0,4.0,49.0,-5.0,-9.0,-10.0,-22.0,-27.0,37.0,-25.0,-9.0,1.0,0.0,1.0,15.0,45.0,54.0,8.0,9.0,-2.0,-4.0,-4.0,2.0,-9.0,-103.0,-22.0,-26.0,3.0,5.0,7.0,2.0,-15.0,-78.0,-30.0,-9.0,2.0,4.0,-3.0,-12.0,-9.0,28.0,6.0
15,35.0,-1.0,-8.0,-12.0,-2.0,-11.0,77.0,36.0,-15.0,2.0,3.0,-3.0,17.0,35.0,33.0,68.0,44.0,-1.0,-2.0,10.0,-2.0,7.0,-71.0,-40.0,-48.0,-6.0,1.0,9.0,-34.0,-25.0,-13.0,-25.0,-8.0,-4.0,-6.0,-18.0,23.0,-6.0,-89.0,-26.0,29.0,4.0,2.0,2.0,-13.0,-9.0,46.0,-41.0,-11.0,2.0,-3.0,-10.0,8.0,41.0,120.0,30.0,-2.0,-2.0,0.0,0.0,1.0,-16.0,-128.0,-41.0
16,-27.0,-5.0,-4.0,4.0,-6.0,-19.0,-29.0,17.0,72.0,3.0,5.0,14.0,9.0,4.0,29.0,-12.0,-61.0,-1.0,1.0,-8.0,-5.0,1.0,-63.0,2.0,47.0,-1.0,0.0,0.0,26.0,-22.0,-3.0,-53.0,27.0,1.0,-4.0,-11.0,-16.0,-2.0,-69.0,3.0,-14.0,8.0,5.0,9.0,33.0,63.0,42.0,46.0,18.0,2.0,5.0,8.0,4.0,25.0,127.0,18.0,-19.0,-2.0,-4.0,-2.0,-11.0,6.0,-109.0,-2.0
17,-84.0,-7.0,0.0,4.0,-12.0,-39.0,27.0,-20.0,79.0,2.0,-6.0,-16.0,0.0,6.0,46.0,26.0,-2.0,-5.0,-9.0,-9.0,2.0,-4.0,-65.0,14.0,-11.0,0.0,2.0,8.0,4.0,15.0,17.0,16.0,-11.0,-8.0,-1.0,11.0,-10.0,-56.0,-118.0,-50.0,-21.0,-1.0,-4.0,-21.0,-27.0,4.0,97.0,27.0,3.0,1.0,-1.0,-6.0,30.0,10.0,41.0,22.0,-5.0,-2.0,-4.0,-1.0,-7.0,0.0,-55.0,4.0
18,8.0,-7.0,-3.0,5.0,-24.0,-13.0,-50.0,-50.0,-63.0,-5.0,-6.0,-34.0,-24.0,-16.0,-128.0,-31.0,71.0,10.0,7.0,10.0,35.0,73.0,67.0,75.0,2.0,0.0,-2.0,2.0,-1.0,5.0,-120.0,7.0,-8.0,7.0,8.0,6.0,-1.0,17.0,11.0,5.0,26.0,-5.0,-6.0,-5.0,19.0,-12.0,-125.0,-11.0,-31.0,-5.0,-3.0,-3.0,-29.0,-41.0,48.0,-21.0,-13.0,-1.0,-4.0,-8.0,-6.0,-18.0,-12.0,9.0
19,26.0,4.0,1.0,-4.0,15.0,33.0,33.0,49.0,-25.0,-4.0,-1.0,15.0,9.0,-13.0,7.0,-8.0,-12.0,-1.0,0.0,0.0,-16.0,-14.0,-5.0,-26.0,26.0,-9.0,-11.0,-9.0,-10.0,-32.0,4.0,-16.0,13.0,9.0,5.0,-5.0,18.0,72.0,102.0,18.0,-22.0,-3.0,2.0,14.0,10.0,-1.0,-122.0,-33.0,-13.0,-1.0,2.0,-1.0,-19.0,-20.0,50.0,-26.0,-55.0,-4.0,0.0,3.0,4.0,-2.0,-21.0,-2.0
20,70.0,-1.0,-1.0,-5.0,-10.0,-49.0,-75.0,-43.0,-1.0,5.0,1.0,8.0,34.0,54.0,127.0,70.0,15.0,-2.0,-2.0,4.0,1.0,1.0,-123.0,-19.0,-18.0,1.0,2.0,-1.0,-9.0,-5.0,-44.0,6.0,-14.0,-4.0,-5.0,-6.0,4.0,-3.0,-71.0,-50.0,0.0,5.0,9.0,15.0,9.0,-8.0,56.0,13.0,-8.0,-6.0,-11.0,-7.0,-10.0,-19.0,12.0,-1.0,9.0,2.0,6.0,15.0,22.0,-1.0,15.0,8.0
21,2.0,-2.0,-9.0,-25.0,-19.0,33.0,76.0,17.0,-30.0,-7.0,-5.0,5.0,-4.0,-21.0,-106.0,-55.0,-45.0,-2.0,1.0,-6.0,0.0,-10.0,-90.0,-17.0,84.0,-1.0,0.0,-2.0,-12.0,6.0,94.0,36.0,-21.0,1.0,-3.0,2.0,34.0,-1.0,-1.0,21.0,6.0,-1.0,1.0,-4.0,-5.0,16.0,-57.0,-46.0,-12.0,2.0,2.0,4.0,2.0,10.0,51.0,22.0,-17.0,2.0,5.0,12.0,-2.0,5.0,18.0,19.0
22,6.0,0.0,3.0,9.0,-6.0,-12.0,-12.0,28.0,-24.0,-4.0,-10.0,-39.0,-2.0,5.0,36.0,-28.0,12.0,-6.0,-4.0,6.0,-1.0,-21.0,-107.0,14.0,-5.0,3.0,2.0,-6.0,-14.0,-3.0,34.0,1.0,14.0,-1.0,1.0,5.0,18.0,10.0,124.0,19.0,-2.0,-5.0,-5.0,2.0,2.0,-12.0,-96.0,-9.0,2.0,-6.0,-3.0,0.0,-14.0,-13.0,34.0,-23.0,-3.0,-1.0,-3.0,-6.0,1.0,4.0,3.0,4.0
23,-33.0,-3.0,0.0,-2.0,19.0,14.0,-71.0,-2.0,6.0,-1.0,3.0,10.0,-13.0,-4.0,2.0,1.0,43.0,-1.0,-4.0,-10.0,-2.0,-20.0,-29.0,-35.0,-54.0,1.0,2.0,0.0,12.0,32.0,27.0,-27.0,18.0,2.0,1.0,1.0,-2.0,-5.0,13.0,38.0,6.0,0.0,1.0,3.0,19.0,13.0,-15.0,4.0,-21.0,-3.0,-6.0,-4.0,-9.0,-3.0,-18.0,-15.0,-3.0,-2.0,3.0,3.0,-20.0,-19.0,-53.0,-15.0
24,-6.0,-1.0,3.0,-10.0,13.0,-7.0,-1.0,-3.0,15.0,0.0,-4.0,-21.0,-14.0,23.0,47.0,30.0,-42.0,2.0,6.0,11.0,15.0,1.0,-52.0,11.0,55.0,2.0,-5.0,-1.0,4.0,20.0,-6.0,-14.0,-3.0,0.0,2.0,6.0,-5.0,-7.0,20.0,0.0,-16.0,-2.0,1.0,16.0,4.0,-11.0,21.0,9.0,20.0,2.0,8.0,8.0,-9.0,-9.0,-78.0,-47.0,2.0,-2.0,-14.0,-36.0,13.0,22.0,54.0,50.0
25,2.0,2.0,4.0,11.0,-1.0,14.0,76.0,13.0,-16.0,2.0,2.0,3.0,8.0,3.0,-21.0,-13.0,-32.0,-4.0,0.0,4.0,-17.0,-11.0,5.0,-1.0,36.0,-4.0,0.0,12.0,8.0,-34.0,-74.0,-32.0,-26.0,-8.0,-19.0,-35.0,-7.0,12.0,-24.0,20.0,42.0,5.0,2.0,4.0,-14.0,1.0,115.0,35.0,-19.0,-2.0,0.0,-4.0,17.0,17.0,-33.0,14.0,11.0,-1.0,0.0,0.0,-16.0,-15.0,-30.0,-19.0
26,-22.0,-4.0,0.0,14.0,19.0,5.0,9.0,5.0,-22.0,-8.0,1.0,8.0,-26.0,-29.0,-94.0,-2.0,9.0,-10.0,-25.0,-43.0,3.0,0.0,-38.0,-37.0,9.0,4.0,4.0,-4.0,-6.0,15.0,82.0,7.0,15.0,2.0,0.0,0.0,-3.0,11.0,-6.0,-13.0,-23.0,0.0,5.0,22.0,13.0,-2.0,16.0,-4.0,-26.0,1.0,2.0,3.0,-5.0,-22.0,-59.0,9.0,24.0,-2.0,0.0,-1.0,2.0,-28.0,-34.0,-28.0
27,11.0,5.0,8.0,16.0,2.0,46.0,82.0,31.0,10.0,1.0,-2.0,-11.0,9.0,14.0,-83.0,-9.0,6.0,1.0,-1.0,-1.0,3.0,15.0,46.0,25.0,-29.0,0.0,0.0,2.0,-3.0,-6.0,-80.0,-17.0,12.0,3.0,5.0,19.0,-8.0,-28.0,-36.0,-2.0,4.0,0.0,-2.0,-16.0,-4.0,-16.0,-73.0,-48.0,-27.0,-3.0,-2.0,-4.0,-1.0,34.0,120.0,33.0,32.0,3.0,6.0,10.0,2.0,15.0,-68.0,5.0
28,15.0,-5.0,-6.0,-4.0,5.0,-7.0,22.0,10.0,-12.0,-3.0,-2.0,4.0,7.0,11.0,-6.0,0.0,-15.0,5.0,8.0,10.0,-1.0,-27.0,-3.0,5.0,17.0,-10.0,-10.0,-3.0,-15.0,-24.0,-98.0,-73.0,-3.0,3.0,-1.0,-7.0,9.0,21.0,97.0,60.0,7.0,-4.0,-8.0,-16.0,22.0,28.0,-40.0,-33.0,6.0,-2.0,2.0,3.0,3.0,-2.0,0.0,-28.0,-29.0,2.0,1.0,5.0,4.0,25.0,90.0,55.0
29,49.0,-3.0,-1.0,-5.0,-14.0,-30.0,-100.0,-33.0,-13.0,0.0,-2.0,8.0,7.0,-1.0,54.0,17.0,9.0,2.0,2.0,2.0,7.0,4.0,-19.0,-16.0,-21.0,1.0,-1.0,-5.0,-6.0,2.0,-7.0,22.0,-25.0,-1.0,0.0,2.0,1.0,-6.0,-79.0,-46.0,10.0,1.0,-2.0,-13.0,-14.0,-1.0,58.0,63.0,38.0,2.0,-1.0,6.0,8.0,7.0,74.0,23.0,-37.0,-8.0,-5.0,-5.0,5.0,0.0,-6.0,-23.0
30,-8.0,0.0,-1.0,-9.0,-7.0,-14.0,-71.0,-2.0,-5.0,3.0,4.0,8.0,-9.0,16.0,66.0,11.0,12.0,6.0,1.0,5.0,16.0,-2.0,-11.0,-2.0,30.0,-3.0,-9.0,-13.0,5.0,-1.0,1.0,7.0,18.0,-1.0,1.0,3.0,-1.0,3.0,-35.0,-5.0,-9.0,-5.0,-3.0,-1.0,7.0,-10.0,-46.0,-12.0,0.0,-1.0,2.0,-2.0,-9.0,-6.0,-91.0,4.0,-20.0,2.0,2.0,2.0,11.0,7.0,40.0,21.0
31,-2.0,4.0,2.0,-3.0,4.0,21.0,105.0,17.0,13.0,-1.0,2.0,13.0,12.0,2.0,-34.0,-3.0,12.0,-3.0,-4.0,-14.0,-6.0,7.0,16.0,7.0,-39.0,-1.0,-1.0,1.0,-13.0,-20.0,-80.0,-8.0,0.0,-6.0,-3.0,-4.0,-5.0,9.0,-1.0,-38.0,4.0,2.0,4.0,10.0,26.0,1.0,57.0,25.0,10.0,-1.0,-4.0,-3.0,-8.0,9.0,-25.0,-8.0,-54.0,-3.0,-4.0,-3.0,-6.0,-7.0,-30.0,-25.0
32,58.0,3.0,-3.0,-4.0,-2.0,-2.0,49.0,21.0,1.0,-2.0,-2.0,5.0,4.0,-5.0,-75.0,-5.0,5.0,-4.0,-1.0,-7.0,-6.0,-18.0,-19.0,25.0,-30.0,3.0,4.0,7.0,12.0,27.0,117.0,25.0,25.0,1.0,5.0,8.0,12.0,3.0,-33.0,-4.0,-30.0,-7.0,-7.0,-13.0,3.0,0.0,-54.0,19.0,43.0,0.0,0.0,12.0,5.0,2.0,41.0,-51.0,-4.0,0.0,2.0,-10.0,-16.0,-5.0,-28.0,9.0
33,-31.0,-4.0,-9.0,-17.0,0.0,2.0,9.0,6.0,0.0,-2.0,0.0,9.0,5.0,-7.0,-8.0,-31.0,-7.0,0.0,1.0,2.0,2.0,-5.0,-20.0,3.0,10.0,-1.0,-1.0,6.0,1.0,-1.0,36.0,10.0,-54.0,-2.0,0.0,11.0,-5.0,2.0,-57.0,-22.0,69.0,-1.0,-5.0,-14.0,0.0,-27.0,-114.0,-41.0,-11.0,4.0,2.0,-4.0,2.0,32.0,116.0,7.0,24.0,-1.0,-1.0,-1.0,6.0,18.0,-13.0,12.0
34,5.0,2.0,2.0,6.0,7.0,10.0,40.0,-6.0,-53.0,-1.0,1.0,0.0,8.0,-2.0,-19.0,6.0,54.0,-5.0,-9.0,-25.0,-25.0,-24.0,-79.0,-25.0,6.0,1.0,-2.0,-3.0,13.0,27.0,84.0,16.0,10.0,-2.0,-3.0,3.0,3.0,2.0,-14.0,15.0,1.0,1.0,3.0,9.0,-2.0,-5.0,19.0,13.0,-35.0,-2.0,0.0,-2.0,1.0,-12.0,-47.0,-68.0,2.0,-2.0,-2.0,-2.0,-1.0,-2.0,-19.0,2.0
35,-3.0,-2.0,-2.0,-3.0,2.0,9.0,26.0,1.0,17.0,1.0,0.0,-5.0,-9.0,-9.0,-8.0,6.0,-17.0,-3.0,1.0,3.0,1.0,-1.0,30.0,13.0,-42.0,1.0,7.0,11.0,-8.0,-13.0,-102.0,-54.0,3.0,-4.0,-4.0,-5.0,35.0,-4.0,55.0,49.0,87.0,3.0,-6.0,-4.0,-12.0,24.0,-14.0,0.0,-13.0,2.0,6.0,16.0,10.0,17.0,44.0,10.0,-13.0,0.0,-1.0,-13.0,-21.0,-6.0,11.0,4.0
36,-21.0,-3.0,-3.0,4.0,-2.0,-17.0,-128.0,-20.0,-1.0,-6.0,-4.0,-7.0,1.0,-12.0,79.0,4.0,-2.0,0.0,-4.0,2.0,5.0,28.0,56.0,16.0,-8.0,-1.0,3.0,9.0,5.0,-5.0,7.0,4.0,-13.0,0.0,-1.0,-4.0,-4.0,0.0,14.0,-16.0,30.0,-1.0,-2.0,-11.0,-13.0,-5.0,-75.0,-12.0,-19.0,0.0,-2.0,8.0,-4.0,-24.0,16.0,43.0,5.0,-2.0,-4.0,-8.0,3.0,1.0,56.0,20.0
37,9.0,1.0,-1.0,3.0,3.0,1.0,-36.0,-8.0,-14.0,3.0,3.0,2.0,-1.0,13.0,38.0,-6.0,-47.0,-3.0,-2.0,-7.0,5.0,-7.0,-36.0,-8.0,51.0,-1.0,-3.0,-3.0,-7.0,-5.0,4.0,4.0,35.0,1.0,4.0,1.0,7.0,0.0,-11.0,11.0,-42.0,-4.0,-2.0,-6.0,-9.0,10.0,9.0,-16.0,48.0,2.0,4.0,8.0,22.0,12.0,-11.0,-14.0,-30.0,-4.0,-2.0,12.0,4.0,-3.0,-7.0,0.0
38,13.0,-4.0,-14.0,-44.0,-41.0,-8.0,13.0,-2.0,-4.0,0.0,2.0,6.0,8.0,-2.0,-31.0,-3.0,-14.0,-4.0,-4.0,-13.0,-2.0,-7.0,-31.0,-26.0,3.0,2.0,4.0,8.0,6.0,13.0,76.0,16.0,-6.0,1.0,-1.0,7.0,0.0,11.0,8.0,2.0,-3.0,-2.0,-3.0,3.0,8.0,-1.0,-12.0,3.0,-1.0,-4.0,0.0,1.0,-9.0,6.0,-5.0,15.0,4.0,3.0,4.0,-2.0,3.0,-17.0,-64.0,-33.0
39,-26.0,-7.0,-6.0,-8.0,-13.0,4.0,24.0,12.0,23.0,0.0,3.0,9.0,-7.0,-6.0,-16.0,-2.0,-24.0,-2.0,4.0,5.0,37.0,-3.0,9.0,-7.0,17.0,-1.0,-5.0,4.0,-13.0,9.0,-3.0,3.0,-18.0,2.0,5.0,1.0,-3.0,2.0,-8.0,-9.0,21.0,0.0,2.0,5.0,5.0,-3.0,46.0,28.0,-35.0,-1.0,0.0,-13.0,-9.0,-8.0,-90.0,-44.0,44.0,1.0,-4.0,-3.0,-1.0,-2.0,66.0,18.0
40,-21.0,-2.0,0.0,5.0,25.0,12.0,-18.0,4.0,-6.0,-3.0,-2.0,-4.0,-16.0,1.0,-2.0,5.0,7.0,-4.0,-3.0,1.0,-1.0,2.0,-15.0,14.0,-14.0,2.0,2.0,-4.0,15.0,16.0,12.0,-24.0,2.0,1.0,3.0,13.0,-14.0,-5.0,5.0,-18.0,-32.0,-4.0,-3.0,-5.0,29.0,-14.0,22.0,25.0,30.0,1.0,-2.0,2.0,-11.0,7.0,-44.0,-17.0,-31.0,-6.0,-4.0,-4.0,-6.0,-12.0,-49.0,5.0
41,23.0,1.0,-1.0,-5.0,7.0,22.0,72.0,8.0,-23.0,1.0,0.0,-1.0,-3.0,-5.0,-41.0,-4.0,-8.0,-2.0,0.0,3.0,-5.0,0.0,0.0,16.0,1.0,2.0,1.0,9.0,15.0,14.0,30.0,4.0,-13.0,-2.0,-4.0,-11.0,-5.0,-1.0,-18.0,2.0,9.0,-2.0,-4.0,-7.0,-5.0,3.0,40.0,2.0,4.0,-1.0,1.0,9.0,13.0,9.0,-27.0,14.0,-1.0,4.0,2.0,-8.0,-15.0,5.0,-2.0,-29.0
42,14.0,-1.0,4.0,4.0,-3.0,-25.0,-57.0,10.0,-3.0,3.0,3.0,6.0,1.0,17.0,71.0,3.0,-39.0,-2.0,-2.0,2.0,11.0,5.0,5.0,12.0,56.0,4.0,0.0,-7.0,-6.0,-1.0,-11.0,0.0,-15.0,-6.0,-5.0,-5.0,-8.0,-1.0,-21.0,-15.0,9.0,0.0,-2.0,-8.0,-5.0,-14.0,-50.0,-23.0,-7.0,-2.0,-2.0,-3.0,-1.0,-6.0,38.0,9.0,-36.0,-6.0,-5.0,-13.0,-7.0,-3.0,-11.0,10.0
43,18.0,0.0,1.0,13.0,-6.0,-4.0,-93.0,-4.0,11.0,1.0,2.0,0.0,24.0,6.0,104.0,1.0,13.0,0.0,-3.0,-20.0,-27.0,21.0,17.0,-14.0,-31.0,-5.0,-4.0,-4.0,13.0,-8.0,-29.0,18.0,-4.0,0.0,3.0,6.0,-16.0,-19.0,-21.0,20.0,-5.0,-6.0,-2.0,-3.0,8.0,-24.0,-51.0,-53.0,10.0,4.0,2.0,6.0,10.0,25.0,40.0,44.0,4.0,-4.0,1.0,10.0,-8.0,4.0,81.0,4.0
44,-25.0,-1.0,-2.0,-3.0,36.0,15.0,11.0,-29.0,13.0,0.0,-1.0,2.0,-26.0,-22.0,-101.0,15.0,7.0,-3.0,0.0,11.0,16.0,-11.0,-1.0,-16.0,-16.0,-2.0,-4.0,-15.0,-19.0,9.0,42.0,12.0,-9.0,-1.0,1.0,9.0,19.0,10.0,2.0,-3.0,17.0,-1.0,-4.0,-4.0,-12.0,-19.0,-73.0,10.0,-2.0,-6.0,-6.0,-3.0,-9.0,6.0,76.0,-15.0,-2.0,-1.0,-1.0,0.0,12.0,0.0,-25.0,7.0
45,-3.0,0.0,3.0,11.0,-12.0,-12.0,-14.0,-7.0,17.0,5.0,-1.0,-11.0,0.0,20.0,61.0,25.0,-13.0,-2.0,0.0,-1.0,4.0,-2.0,-108.0,-30.0,-10.0,1.0,3.0,-1.0,-9.0,-3.0,50.0,16.0,12.0,-1.0,-4.0,-4.0,-5.0,8.0,5.0,-6.0,-9.0,3.0,3.0,11.0,22.0,0.0,9.0,-8.0,9.0,-1.0,-7.0,-12.0,-6.0,-3.0,-50.0,-23.0,-19.0,-2.0,-2.0,-2.0,3.0,-4.0,-113.0,-18.0
46,-1.0,1.0,2.0,3.0,1.0,2.0,120.0,33.0,-2.0,-5.0,-1.0,-5.0,-5.0,7.0,3.0,5.0,-4.0,1.0,4.0,15.0,17.0,-4.0,38.0,-15.0,8.0,-1.0,-8.0,-17.0,-6.0,-2.0,-64.0,23.0,15.0,1.0,-1.0,3.0,-7.0,-5.0,0.0,8.0,-5.0,-2.0,-1.0,1.0,-6.0,-5.0,-33.0,-11.0,-12.0,1.0,0.0,-1.0,6.0,0.0,-18.0,-19.0,-23.0,-3.0,-1.0,3.0,0.0,-6.0,15.0,-18.0
47,-13.0,-3.0,-3.0,-8.0,-13.0,-2.0,-8.0,3.0,14.0,6.0,5.0,-3.0,6.0,15.0,37.0,44.0,10.0,-1.0,0.0,6.0,-1.0,3.0,8.0,4.0,-13.0,-4.0,-6.0,-11.0,-16.0,-18.0,-73.0,-46.0,18.0,2.0,0.0,2.0,13.0,4.0,38.0,30.0,-7.0,-2.0,-1.0,-1.0,0.0,-2.0,-33.0,-12.0,-53.0,-5.0,0.0,4.0,15.0,-20.0,-1.0,-6.0,69.0,-1.0,-3.0,-1.0,-30.0,-4.0,-104.0,-11.0
48,14.0,6.0,5.0,-4.0,4.0,28.0,127.0,52.0,-10.0,-7.0,-3.0,5.0,16.0,4.0,-63.0,-43.0,14.0,0.0,0.0,-1.0,-8.0,-11.0,-39.0,5.0,-31.0,-1.0,-1.0,0.0,14.0,14.0,69.0,3.0,-5.0,-6.0,-9.0,-4.0,-14.0,11.0,-20.0,-5.0,-3.0,0.0,3.0,10.0,-2.0,-22.0,-52.0,-22.0,18.0,3.0,4.0,5.0,0.0,9.0,14.0,1.0,-12.0,-1.0,-2.0,-12.0,0.0,-4.0,35.0,-11.0
49,5.0,1.0,3.0,9.0,1.0,-9.0,-21.0,-4.0,-8.0,-2.0,-7.0,-2.0,-2.0,-7.0,-26.0,-31.0,-19.0,-9.0,-9.0,-8.0,-11.0,-13.0,-75.0,-17.0,3.0,4.0,5.0,5.0,-4.0,-17.0,-9.0,-14.0,-20.0,1.0,2.0,0.0,3.0,13.0,64.0,29.0,55.0,1.0,-2.0,10.0,-3.0,-4.0,-19.0,-10.0,-15.0,-3.0,-3.0,-14.0,5.0,1.0,11.0,-3.0,12.0,-2.0,-5.0,-4.0,-5.0,1.0,-13.0,-1.0
50,-33.0,-4.0,-4.0,-7.0,-25.0,-19.0,-98.0,-26.0,10.0,3.0,3.0,11.0,21.0,18.0,104.0,22.0,1.0,0.0,3.0,7.0,14.0,5.0,1.0,10.0,-3.0,2.0,0.0,-3.0,-2.0,14.0,44.0,34.0,-26.0,0.0,1.0,4.0,0.0,-5.0,-42.0,-23.0,43.0,0.0,-2.0,-5.0,-6.0,-15.0,8.0,1.0,25.0,0.0,-1.0,0.0,-2.0,-4.0,-42.0,-23.0,-37.0,-1.0,7.0,9.0,-12.0,-13.0,-24.0,-10.0
51,-16.0,2.0,-1.0,-17.0,26.0,-2.0,-7.0,7.0,41.0,-2.0,-1.0,5.0,-5.0,1.0,65.0,27.0,-12.0,-1.0,1.0,-4.0,-12.0,3.0,11.0,-10.0,14.0,-1.0,-1.0,1.0,-5.0,2.0,-34.0,13.0,-22.0,-5.0,0.0,17.0,7.0,-16.0,-15.0,-19.0,-11.0,1.0,-1.0,-19.0,-6.0,15.0,-5.0,-23.0,30.0,2.0,-2.0,0.0,10.0,17.0,38.0,34.0,-20.0,-3.0,-4.0,-5.0,-18.0,-15.0,-18.0,3.0
52,0.0,-4.0,-1.0,5.0,-11.0,-3.0,-24.0,-49.0,-8.0,2.0,0.0,2.0,23.0,6.0,-36.0,-8.0,18.0,-2.0,-2.0,2.0,-25.0,-25.0,-16.0,-20.0,-15.0,0.0,-3.0,-7.0,21.0,9.0,25.0,20.0,-10.0,-1.0,1.0,8.0,-16.0,5.0,-42.0,-18.0,38.0,0.0,-1.0,-1.0,7.0,7.0,71.0,48.0,-50.0,-2.0,-3.0,-6.0,7.0,6.0,-59.0,-65.0,57.0,-1.0,-4.0,0.0,-17.0,-19.0,-3.0,25.0
53,-11.0,2.0,1.0,2.0,10.0,1.0,21.0,10.0,-21.0,1.0,2.0,9.0,7.0,-7.0,18.0,9.0,6.0,-2.0,-3.0,-9.0,0.0,7.0,6.0,12.0,16.0,4.0,-1.0,-5.0,-9.0,4.0,21.0,-8.0,5.0,1.0,0.0,5.0,6.0,-1.0,-28.0,-3.0,-17.0,-6.0,-3.0,-9.0,-29.0,-17.0,-41.0,-9.0,14.0,0.0,2.0,8.0,7.0,-8.0,-70.0,-18.0,-28.0,-4.0,-7.0,-16.0,1.0,12.0,123.0,19.0
54,16.0,1.0,0.0,-4.0,11.0,16.0,-109.0,-16.0,-8.0,0.0,1.0,11.0,-3.0,-9.0,52.0,19.0,12.0,6.0,6.0,9.0,19.0,17.0,67.0,20.0,-15.0,-4.0,-4.0,-5.0,-11.0,-4.0,-53.0,-17.0,-30.0,-3.0,-5.0,-11.0,-14.0,6.0,23.0,5.0,31.0,-1.0,-2.0,7.0,5.0,1.0,-53.0,-32.0,10.0,1.0,0.0,7.0,16.0,-6.0,25.0,3.0,-17.0,0.0,1.0,-5.0,-11.0,4.0,2.0,3.0
55,-6.0,-3.0,-3.0,5.0,12.0,11.0,25.0,18.0,-13.0,-1.0,1.0,-2.0,-9.0,-10.0,-33.0,-8.0,-9.0,-6.0,-2.0,-5.0,4.0,4.0,-24.0,-16.0,6.0,-1.0,3.0,12.0,-2.0,-18.0,-56.0,-15.0,14.0,1.0,-3.0,-23.0,6.0,15.0,106.0,30.0,-9.0,-4.0,-3.0,-3.0,-23.0,-4.0,-20.0,-18.0,14.0,3.0,-1.0,-8.0,16.0,13.0,23.0,6.0,-21.0,1.0,1.0,9.0,-12.0,-7.0,-29.0,-10.0
56,-4.0,-2.0,2.0,8.0,28.0,0.0,-16.0,-4.0,-29.0,-4.0,-6.0,-17.0,-16.0,-3.0,-4.0,-10.0,52.0,6.0,6.0,3.0,-13.0,3.0,22.0,30.0,-9.0,-6.0,-2.0,-4.0,7.0,-10.0,-39.0,-22.0,18.0,1.0,3.0,6.0,-1.0,4.0,41.0,12.0,-26.0,-2.0,0.0,3.0,22.0,-3.0,-76.0,-24.0,-10.0,-4.0,-2.0,-11.0,-19.0,-8.0,39.0,28.0,-9.0,0.0,-2.0,-6.0,-2.0,11.0,45.0,18.0
57,15.0,3.0,2.0,2.0,6.0,-1.0,-75.0,-44.0,-25.0,-5.0,-3.0,3.0,11.0,-8.0,81.0,23.0,27.0,0.0,-1.0,1.0,-8.0,20.0,8.0,5.0,-4.0,-1.0,-1.0,1.0,19.0,1.0,-3.0,-8.0,8.0,-1.0,-1.0,11.0,-9.0,-9.0,15.0,26.0,-36.0,-6.0,-3.0,-17.0,-33.0,-4.0,-44.0,-25.0,-2.0,0.0,-3.0,6.0,25.0,-6.0,-29.0,-18.0,0.0,1.0,2.0,-3.0,-16.0,-1.0,38.0,11.0
58,1.0,-1.0,-2.0,1.0,19.0,5.0,-6.0,-7.0,-4.0,-1.0,-2.0,4.0,2.0,-5.0,-73.0,-21.0,2.0,-1.0,-2.0,-2.0,0.0,-1.0,88.0,65.0,-5.0,-2.0,-3.0,-7.0,-12.0,8.0,3.0,-22.0,-15.0,-1.0,-3.0,-11.0,-10.0,-7.0,-14.0,-5.0,36.0,4.0,4.0,3.0,-1.0,9.0,42.0,26.0,-15.0,-3.0,0.0,1.0,-8.0,-6.0,-13.0,-5.0,-15.0,3.0,2.0,0.0,7.0,-3.0,-10.0,19.0
59,31.0,1.0,-1.0,-5.0,16.0,5.0,-25.0,-15.0,6.0,-1.0,0.0,11.0,-2.0,-1.0,-3.0,-2.0,-2.0,0.0,-1.0,1.0,-3.0,-10.0,-16.0,-22.0,-28.0,-6.0,-8.0,-17.0,-10.0,-1.0,-11.0,-5.0,-26.0,-1.0,1.0,3.0,-8.0,9.0,-2.0,20.0,84.0,5.0,6.0,9.0,13.0,-5.0,25.0,2.0,-14.0,-5.0,-6.0,-7.0,18.0,6.0,-6.0,-3.0,10.0,2.0,0.0,5.0,5.0,14.0,34.0,-10.0
60,-17.0,-3.0,-1.0,0.0,-7.0,2.0,-27.0,5.0,-19.0,-2.0,0.0,-2.0,-3.0,-4.0,8.0,-24.0,-15.0,1.0,5.0,18.0,-16.0,-17.0,-30.0,44.0,36.0,0.0,-3.0,-14.0,8.0,-5.0,20.0,-2.0,0.0,-1.0,-4.0,-3.0,3.0,16.0,21.0,13.0,-6.0,-1.0,0.0,2.0,1.0,-3.0,-14.0,19.0,6.0,1.0,2.0,-4.0,-6.0,-6.0,-22.0,-26.0,-15.0,-1.0,1.0,2.0,7.0,-8.0,23.0,-38.0
61,1.0,-1.0,3.0,2.0,-14.0,-9.0,6.0,29.0,5.0,-1.0,-7.0,-12.0,22.0,18.0,44.0,-26.0,-13.0,4.0,3.0,1.0,-9.0,14.0,2.0,46.0,1.0,-2.0,-2.0,5.0,1.0,-8.0,-51.0,-30.0,2.0,-1.0,1.0,2.0,-3.0,5.0,9.0,-23.0,-19.0,-2.0,-4.0,-4.0,1.0,-7.0,-42.0,-3.0,4.0,0.0,-2.0,-5.0,-19.0,-18.0,6.0,12.0,-25.0,-2.0,0.0,1.0,22.0,5.0,-54.0,1.0
62,13.0,1.0,-1.0,-1.0,-1.0,18.0,73.0,9.0,5.0,-2.0,5.0,7.0,-3.0,2.0,42.0,17.0,-15.0,-6.0,-7.0,-6.0,-3.0,3.0,-12.0,-16.0,14.0,1.0,1.0,-4.0,-10.0,-17.0,-29.0,-1.0,-1.0,-4.0,-4.0,-10.0,6.0,1.0,-7.0,-1.0,-1.0,2.0,0.0,1.0,9.0,6.0,-6.0,11.0,1.0,-1.0,-2.0,0.0,7.0,6.0,10.0,-22.0,2.0,-1.0,-1.0,-2.0,-9.0,-3.0,0.0,3.0
63,7.0,0.0,-2.0,3.0,1.0,-1.0,-35.0,-8.0,-70.0,-4.0,-1.0,-7.0,-10.0,-8.0,23.0,1.0,65.0,-1.0,0.0,-5.0,12.0,-2.0,-55.0,1.0,17.0,-6.0,-3.0,4.0,-4.0,-6.0,-21.0,-41.0,-12.0,4.0,2.0,3.0,15.0,13.0,86.0,45.0,30.0,0.0,-4.0,-1.0,-2.0,2.0,-40.0,-3.0,-22.0,-1.0,-3.0,-5.0,1.0,13.0,44.0,-16.0,1.0,0.0,0.0,5.0,-18.0,-6.0,-41.0,-1.0
64,-9.0,-1.0,1.0,6.0,32.0,-8.0,-32.0,0.0,7.0,1.0,2.0,-4.0,-17.0,0.0,13.0,24.0,-6.0,-2.0,0.0,-6.0,-13.0,-2.0,-21.0,-30.0,4.0,0.0,-4.0,-10.0,14.0,4.0,18.0,32.0,0.0,-2.0,-2.0,0.0,-19.0,5.0,3.0,-11.0,5.0,0.0,1.0,9.0,10.0,-6.0,-8.0,13.0,-12.0,-2.0,4.0,5.0,11.0,-3.0,-43.0,-36.0,-48.0,-4.0,-4.0,-2.0,-6.0,5.0,-8.0,3.0
65,55.0,6.0,2.0,-4.0,8.0,-3.0,18.0,-8.0,6.0,-2.0,-1.0,-5.0,-10.0,10.0,52.0,2.0,-12.0,2.0,4.0,10.0,5.0,1.0,12.0,2.0,-12.0,3.0,2.0,15.0,32.0,5.0,10.0,-7.0,-7.0,-4.0,-8.0,-31.0,-33.0,0.0,-86.0,5.0,-14.0,2.0,2.0,6.0,7.0,-7.0,18.0,12.0,26.0,-2.0,-7.0,-8.0,-1.0,5.0,39.0,10.0,11.0,1.0,5.0,9.0,-3.0,1.0,13.0,5.0
66,-4.0,-4.0,-1.0,10.0,13.0,-4.0,-72.0,-6.0,-21.0,-1.0,1.0,-3.0,-6.0,-5.0,28.0,-16.0,20.0,2.0,-2.0,7.0,4.0,-3.0,-17.0,20.0,15.0,-1.0,-6.0,-15.0,-9.0,3.0,65.0,21.0,-11.0,-1.0,3.0,8.0,6.0,17.0,-14.0,-35.0,-51.0,-1.0,4.0,1.0,-2.0,-20.0,-51.0,-1.0,60.0,1.0,-3.0,-6.0,7.0,4.0,15.0,12.0,9.0,3.0,6.0,16.0,3.0,13.0,27.0,-4.0
67,-7.0,-2.0,-3.0,-8.0,-9.0,3.0,5.0,2.0,6.0,-2.0,-2.0,7.0,10.0,5.0,17.0,4.0,-35.0,-3.0,-1.0,6.0,12.0,-12.0,-44.0,-20.0,12.0,1.0,3.0,-5.0,-4.0,-2.0,-60.0,-3.0,-5.0,2.0,1.0,10.0,3.0,8.0,97.0,17.0,2.0,0.0,-3.0,2.0,2.0,7.0,-52.0,-13.0,5.0,0.0,0.0,0.0,-6.0,-6.0,43.0,7.0,-32.0,-3.0,-2.0,-9.0,-8.0,-4.0,-63.0,-24.0
68,38.0,-1.0,1.0,8.0,14.0,-4.0,26.0,10.0,16.0,-2.0,-1.0,-9.0,-13.0,-2.0,-45.0,-31.0,-65.0,-1.0,4.0,14.0,0.0,12.0,107.0,47.0,75.0,3.0,1.0,-7.0,20.0,9.0,-32.0,15.0,-10.0,-2.0,-3.0,0.0,-3.0,10.0,34.0,-19.0,16.0,-1.0,-6.0,-1.0,4.0,5.0,13.0,10.0,-31.0,0.0,-2.0,-12.0,-15.0,-14.0,-100.0,-31.0,17.0,1.0,-1.0,7.0,-6.0,-14.0,62.0,23.0
69,-6.0,-2.0,-1.0,-2.0,13.0,12.0,11.0,-6.0,11.0,-7.0,-5.0,-3.0,-1.0,2.0,-11.0,-21.0,-14.0,1.0,3.0,4.0,8.0,-4.0,-47.0,-13.0,-26.0,0.0,2.0,4.0,-10.0,-10.0,60.0,33.0,27.0,3.0,4.0,10.0,15.0,3.0,-28.0,-36.0,-38.0,-2.0,-5.0,-28.0,-17.0,-6.0,-22.0,-17.0,21.0,-6.0,-4.0,-7.0,-13.0,0.0,-21.0,1.0,45.0,2.0,1.0,6.0,1.0,9.0,61.0,13.0
70,-19.0,-1.0,1.0,3.0,6.0,4.0,-19.0,17.0,11.0,-1.0,-1.0,2.0,3.0,-4.0,-9.0,-5.0,-14.0,0.0,-3.0,-6.0,5.0,-4.0,-42.0,3.0,-16.0,-4.0,-3.0,-3.0,0.0,-6.0,21.0,-24.0,-11.0,-4.0,-3.0,-5.0,-10.0,2.0,60.0,52.0,8.0,4.0,0.0,4.0,8.0,8.0,-38.0,-24.0,2.0,1.0,-2.0,-6.0,-7.0,-14.0,-26.0,-37.0,-16.0,-1.0,0.0,9.0,13.0,17.0,-18.0,13.0
71,-8.0,-3.0,-3.0,-2.0,-1.0,-4.0,3.0,-7.0,-28.0,4.0,3.0,-5.0,5.0,13.0,46.0,5.0,-18.0,-5.0,1.0,2.0,-17.0,-11.0,-2.0,10.0,81.0,2.0,-4.0,-10.0,21.0,3.0,-29.0,-6.0,-26.0,-3.0,-3.0,3.0,-3.0,-4.0,-64.0,-36.0,26.0,0.0,-5.0,-6.0,-11.0,-4.0,15.0,32.0,-16.0,-1.0,0.0,1.0,14.0,11.0,42.0,-1.0,-43.0,-2.0,1.0,-1.0,-13.0,-13.0,0.0,-10.0
72,7.0,-1.0,-1.0,-6.0,13.0,9.0,-11.0,12.0,6.0,-1.0,-2.0,14.0,1.0,4.0,6.0,5.0,4.0,2.0,3.0,-12.0,-1.0,9.0,2.0,0.0,-29.0,-7.0,-4.0,2.0,0.0,-16.0,-104.0,-23.0,8.0,1.0,0.0,-16.0,-11.0,7.0,30.0,17.0,21.0,1.0,3.0,5.0,2.0,1.0,73.0,31.0,-31.0,-1.0,4.0,5.0,23.0,11.0,13.0,-11.0,53.0,3.0,-4.0,2.0,-11.0,8.0,3.0,9.0
73,-15.0,-1.0,-1.0,-2.0,2.0,-5.0,-54.0,-16.0,4.0,0.0,0.0,-2.0,7.0,-18.0,-4.0,-2.0,-6.0,0.0,1.0,1.0,-12.0,7.0,40.0,25.0,-11.0,-1.0,3.0,0.0,12.0,9.0,20.0,-20.0,-8.0,3.0,2.0,2.0,5.0,7.0,-6.0,-16.0,-4.0,0.0,-1.0,1.0,6.0,-9.0,-9.0,16.0,40.0,0.0,-3.0,4.0,-4.0,6.0,-29.0,-3.0,-42.0,-3.0,-2.0,-13.0,-9.0,-2.0,26.0,-3.0
74,10.0,0.0,0.0,3.0,6.0,19.0,54.0,27.0,12.0,-2.0,2.0,11.0,-2.0,-4.0,-51.0,-7.0,-24.0,-3.0,-4.0,-6.0,-2.0,-16.0,-57.0,-10.0,-7.0,-4.0,-7.0,-18.0,-5.0,9.0,65.0,-1.0,5.0,1.0,-1.0,1.0,-2.0,-1.0,-49.0,-22.0,-53.0,-1.0,2.0,6.0,1.0,10.0,61.0,-18.0,83.0,6.0,3.0,0.0,17.0,-1.0,23.0,46.0,-14.0,-1.0,2.0,6.0,0.0,13.0,11.0,46.0
75,-5.0,-4.0,-4.0,-2.0,0.0,-13.0,-16.0,-14.0,-10.0,-4.0,-3.0,-5.0,7.0,5.0,-13.0,-23.0,4.0,-4.0,-1.0,4.0,-4.0,-7.0,-4.0,-16.0,-14.0,-1.0,-1.0,-6.0,-2.0,0.0,-39.0,-7.0,0.0,1.0,1.0,2.0,6.0,-5.0,-5.0,14.0,-8.0,1.0,4.0,1.0,-9.0,0.0,14.0,7.0,10.0,-3.0,-6.0,-14.0,2.0,4.0,60.0,0.0,-19.0,0.0,0.0,7.0,7.0,6.0,-2.0,-16.0
76,-18.0,0.0,3.0,7.0,6.0,5.0,-28.0,13.0,25.0,2.0,1.0,0.0,5.0,9.0,69.0,29.0,-10.0,-2.0,-2.0,-1.0,-3.0,4.0,-14.0,-4.0,-24.0,-3.0,-5.0,-1.0,5.0,-5.0,-17.0,-21.0,11.0,0.0,1.0,1.0,-19.0,-13.0,-48.0,-5.0,12.0,0.0,-1.0,-5.0,13.0,3.0,-15.0,2.0,4.0,1.0,2.0,8.0,8.0,5.0,36.0,4.0,-15.0,-1.0,0.0,-5.0,-4.0,0.0,25.0,4.0
77,-3.0,-2.0,-1.0,0.0,7.0,7.0,20.0,15.0,14.0,-2.0,-1.0,-4.0,-6.0,-6.0,-40.0,-26.0,-34.0,-1.0,-2.0,-1.0,-1.0,3.0,-23.0,-3.0,22.0,3.0,1.0,-3.0,-23.0,-13.0,9.0,2.0,5.0,-3.0,-5.0,-8.0,32.0,7.0,4.0,-6.0,9.0,0.0,1.0,5.0,-10.0,1.0,-29.0,5.0,-46.0,-4.0,-4.0,-7.0,-2.0,-4.0,-15.0,-24.0,-17.0,-3.0,0.0,1.0,-19.0,0.0,-23.0,-1.0
78,73.0,5.0,-1.0,-6.0,11.0,3.0,35.0,3.0,-5.0,-3.0,-3.0,2.0,-2.0,-2.0,-37.0,15.0,9.0,-1.0,0.0,5.0,-3.0,9.0,35.0,0.0,-6.0,1.0,1.0,5.0,12.0,-6.0,-15.0,4.0,-22.0,-2.0,0.0,5.0,-9.0,-2.0,-44.0,-6.0,4.0,1.0,1.0,-7.0,3.0,0.0,65.0,-4.0,18.0,2.0,-2.0,-9.0,-1.0,-2.0,-30.0,-12.0,-4.0,1.0,0.0,1.0,0.0,-1.0,-30.0,13.0
79,-16.0,2.0,2.0,12.0,8.0,30.0,114.0,5.0,15.0,1.0,-3.0,-13.0,2.0,-8.0,-55.0,-15.0,1.0,0.0,3.0,3.0,4.0,-1.0,17.0,19.0,-41.0,-4.0,-1.0,1.0,12.0,12.0,1.0,-5.0,55.0,-1.0,-2.0,6.0,-15.0,-19.0,-69.0,-10.0,-9.0,-4.0,-8.0,-16.0,5.0,14.0,18.0,4.0,7.0,0.0,-1.0,2.0,-6.0,-5.0,-22.0,-9.0,-2.0,0.0,2.0,11.0,9.0,-5.0,36.0,-13.0
80,-21.0,-2.0,-3.0,-13.0,1.0,2.0,-1.0,0.0,-3.0,0.0,2.0,7.0,-9.0,-4.0,-11.0,6.0,3.0,-1.0,-3.0,-10.0,4.0,-6.0,-91.0,-48.0,5.0,-1.0,2.0,1.0,5.0,11.0,91.0,42.0,-14.0,-3.0,0.0,-3.0,2.0,11.0,20.0,-4.0,7.0,-2.0,1.0,4.0,-4.0,-4.0,-13.0,-25.0,8.0,0.0,0.0,5.0,5.0,-7.0,-53.0,28.0,14.0,-2.0,-3.0,1.0,14.0,0.0,-14.0,-21.0
81,-35.0,-1.0,0.0,-9.0,-5.0,6.0,40.0,6.0,30.0,0.0,-2.0,1.0,-11.0,-7.0,-28.0,-7.0,-29.0,-2.0,5.0,14.0,4.0,-10.0,-34.0,-10.0,44.0,0.0,-4.0,-4.0,5.0,1.0,12.0,0.0,-11.0,-4.0,-1.0,-4.0,-4.0,9.0,-70.0,-28.0,-5.0,1.0,1.0,11.0,11.0,-1.0,99.0,38.0,-30.0,-4.0,-4.0,-13.0,-9.0,12.0,37.0,2.0,23.0,3.0,0.0,4.0,-3.0,-10.0,-73.0,-30.0
82,-15.0,-1.0,1.0,3.0,22.0,5.0,43.0,14.0,0.0,-1.0,-1.0,-5.0,-11.0,-3.0,-42.0,6.0,14.0,-4.0,-6.0,-1.0,0.0,-7.0,9.0,-10.0,-26.0,-4.0,-1.0,-7.0,-14.0,3.0,11.0,-8.0,-6.0,2.0,3.0,-4.0,32.0,-10.0,-30.0,-9.0,-36.0,-4.0,-4.0,0.0,-24.0,12.0,-1.0,-19.0,87.0,9.0,1.0,9.0,24.0,17.0,98.0,45.0,-13.0,-2.0,2.0,-2.0,-10.0,-2.0,-44.0,-9.0
83,-1.0,-3.0,-3.0,-4.0,-7.0,5.0,23.0,0.0,-22.0,-5.0,-1.0,-8.0,-1.0,-9.0,-25.0,7.0,0.0,-3.0,-1.0,-3.0,-4.0,-6.0,-10.0,-12.0,-1.0,-2.0,0.0,3.0,2.0,-8.0,-41.0,-10.0,0.0,1.0,-7.0,-14.0,1.0,14.0,74.0,18.0,-5.0,0.0,-1.0,0.0,5.0,1.0,-17.0,-2.0,-2.0,-2.0,-1.0,-2.0,-12.0,-4.0,-10.0,1.0,6.0,0.0,0.0,7.0,8.0,-7.0,-24.0,-11.0
84,-13.0,-5.0,-6.0,-13.0,-6.0,-12.0,-61.0,17.0,11.0,3.0,1.0,-1.0,-2.0,-3.0,33.0,-27.0,-6.0,-1.0,0.0,3.0,-1.0,24.0,60.0,22.0,-40.0,-1.0,1.0,0.0,6.0,10.0,24.0,4.0,43.0,2.0,2.0,5.0,8.0,15.0,-1.0,-10.0,28.0,-4.0,-5.0,0.0,9.0,-6.0,-24.0,-7.0,-11.0,2.0,2.0,-10.0,-30.0,-16.0,-35.0,-15.0,-31.0,-4.0,-2.0,-5.0,20.0,3.0,-35.0,9.0
85,26.0,3.0,-1.0,-1.0,-22.0,-7.0,50.0,0.0,12.0,2.0,6.0,19.0,9.0,3.0,26.0,24.0,-23.0,-1.0,-8.0,-28.0,12.0,2.0,-37.0,-29.0,18.0,2.0,-2.0,-1.0,-7.0,19.0,82.0,53.0,-14.0,-3.0,0.0,9.0,0.0,-9.0,-47.0,1.0,-1.0,3.0,3.0,-1.0,7.0,7.0,5.0,-19.0,-8.0,-1.0,1.0,1.0,1.0,1.0,18.0,6.0,-4.0,-1.0,-1.0,2.0,-6.0,-6.0,-6.0,-3.0
86,18.0,-1.0,-2.0,3.0,4.0,-1.0,-31.0,-8.0,-15.0,-3.0,-1.0,3.0,13.0,-15.0,-17.0,13.0,-1.0,-6.0,-7.0,-16.0,-23.0,-5.0,14.0,-14.0,-18.0,-2.0,-4.0,-2.0,1.0,6.0,-27.0,-16.0,22.0,5.0,8.0,16.0,8.0,0.0,-34.0,0.0,-47.0,-6.0,-5.0,-3.0,2.0,7.0,79.0,9.0,39.0,0.0,4.0,15.0,3.0,2.0,-2.0,2.0,20.0,-1.0,0.0,-5.0,5.0,0.0,-21.0,-2.0
87,-41.0,-2.0,1.0,2.0,-12.0,-13.0,-22.0,-21.0,-2.0,-3.0,0.0,-2.0,2.0,9.0,-37.0,-18.0,16.0,-1.0,0.0,5.0,6.0,-13.0,75.0,34.0,6.0,-1.0,-1.0,-2.0,0.0,11.0,31.0,9.0,-7.0,2.0,-1.0,6.0,7.0,8.0,-5.0,-3.0,7.0,1.0,-4.0,-10.0,-8.0,-12.0,-67.0,-12.0,-17.0,-3.0,-4.0,10.0,-1.0,-7.0,-3.0,1.0,-22.0,2.0,0.0,-5.0,5.0,0.0,1.0,-13.0
88,46.0,-4.0,-4.0,-15.0,-12.0,1.0,1.0,1.0,7.0,5.0,6.0,7.0,1.0,11.0,7.0,8.0,-18.0,0.0,-1.0,-2.0,7.0,2.0,16.0,-13.0,14.0,2.0,1.0,7.0,-7.0,-2.0,0.0,9.0,-25.0,-3.0,-1.0,-3.0,4.0,-8.0,-2.0,-1.0,0.0,-2.0,-5.0,-9.0,7.0,1.0,-48.0,-10.0,-3.0,-3.0,-1.0,9.0,-12.0,-14.0,-70.0,-26.0,-14.0,0.0,2.0,1.0,15.0,12.0,69.0,-10.0
89,2.0,-3.0,-7.0,-9.0,-11.0,3.0,43.0,12.0,16.0,0.0,-1.0,0.0,3.0,1.0,-4.0,2.0,-4.0,1.0,5.0,1.0,-3.0,9.0,6.0,10.0,3.0,-1.0,1.0,-3.0,12.0,-15.0,-34.0,-17.0,-20.0,-4.0,-3.0,2.0,-3.0,12.0,-46.0,-19.0,-4.0,-2.0,-3.0,-7.0,-8.0,-5.0,45.0,-1.0,-1.0,-1.0,2.0,3.0,10.0,-2.0,-4.0,12.0,-26.0,1.0,0.0,1.0,-9.0,-3.0,-3.0,2.0
90,47.0,5.0,2.0,10.0,8.0,1.0,9.0,-7.0,-17.0,0.0,0.0,-1.0,12.0,1.0,-24.0,14.0,25.0,-2.0,-3.0,3.0,-7.0,7.0,52.0,23.0,5.0,-2.0,-3.0,-7.0,-7.0,8.0,-23.0,-8.0,-21.0,-2.0,-2.0,0.0,21.0,-4.0,-9.0,13.0,-11.0,-1.0,1.0,1.0,-19.0,-3.0,6.0,-11.0,-9.0,0.0,-1.0,-3.0,6.0,-11.0,-7.0,-5.0,22.0,1.0,-3.0,-10.0,3.0,1.0,-45.0,-1.0
91,-20.0,-5.0,-6.0,-9.0,6.0,-1.0,30.0,8.0,17.0,4.0,2.0,-3.0,-11.0,7.0,-8.0,-4.0,-22.0,-1.0,-2.0,-1.0,3.0,2.0,-37.0,-7.0,22.0,0.0,0.0,0.0,0.0,-4.0,16.0,-23.0,-10.0,-1.0,5.0,4.0,-1.0,3.0,6.0,16.0,-35.0,-4.0,-1.0,4.0,9.0,-3.0,7.0,7.0,46.0,1.0,-2.0,-5.0,-1.0,7.0,23.0,-8.0,-37.0,-2.0,-2.0,4.0,15.0,7.0,-21.0,-18.0
92,53.0,-2.0,-2.0,-1.0,-20.0,-9.0,-2.0,38.0,4.0,0.0,-1.0,-2.0,9.0,0.0,-13.0,-14.0,-3.0,1.0,-1.0,-7.0,-11.0,-5.0,6.0,5.0,17.0,-1.0,0.0,6.0,19.0,7.0,-1.0,6.0,-27.0,1.0,-1.0,0.0,-12.0,4.0,21.0,7.0,-3.0,-2.0,-2.0,-1.0,-2.0,0.0,-39.0,-5.0,-6.0,-1.0,2.0,6.0,1.0,-15.0,36.0,-11.0,6.0,-1.0,0.0,-3.0,4.0,18.0,30.0,13.0
93,-39.0,-2.0,-3.0,-5.0,-2.0,12.0,-10.0,-29.0,34.0,-1.0,-7.0,-11.0,-14.0,-8.0,9.0,18.0,-17.0,2.0,3.0,7.0,6.0,-12.0,-42.0,1.0,-9.0,-4.0,-2.0,-5.0,3.0,-6.0,-6.0,12.0,17.0,3.0,1.0,-4.0,-5.0,7.0,62.0,-3.0,-32.0,-4.0,-1.0,4.0,-1.0,6.0,-19.0,-21.0,39.0,-5.0,-3.0,2.0,4.0,2.0,-23.0,-4.0,-3.0,3.0,-6.0,-20.0,-16.0,-1.0,14.0,37.0
94,-9.0,-2.0,3.0,4.0,13.0,3.0,-33.0,-22.0,-7.0,-1.0,1.0,-2.0,-2.0,3.0,-13.0,-21.0,-35.0,-3.0,-1.0,-3.0,-4.0,-22.0,-103.0,-24.0,24.0,4.0,7.0,3.0,-2.0,1.0,95.0,22.0,-9.0,-2.0,-2.0,-8.0,14.0,16.0,36.0,14.0,14.0,-2.0,-4.0,-7.0,-18.0,6.0,15.0,8.0,-14.0,-1.0,2.0,5.0,11.0,3.0,14.0,-9.0,18.0,0.0,1.0,2.0,-18.0,-7.0,-75.0,-41.0
95,-15.0,-4.0,-5.0,1.0,7.0,-11.0,-49.0,16.0,10.0,3.0,2.0,4.0,19.0,6.0,67.0,55.0,-41.0,-5.0,0.0,0.0,-9.0,7.0,-10.0,-3.0,47.0,0.0,-2.0,0.0,0.0,-7.0,-47.0,-14.0,-5.0,1.0,0.0,3.0,15.0,4.0,76.0,-6.0,11.0,0.0,-3.0,-2.0,-3.0,-4.0,-57.0,-23.0,-23.0,-1.0,-4.0,-3.0,-3.0,-6.0,3.0,11.0,-10.0,0.0,1.0,-8.0,-9.0,8.0,67.0,20.0
96,-3.0,-2.0,1.0,3.0,-5.0,-1.0,-45.0,-22.0,-3.0,-2.0,-6.0,-5.0,7.0,-7.0,3.0,-20.0,11.0,0.0,-1.0,-12.0,-16.0,-1.0,14.0,19.0,-12.0,-4.0,-3.0,6.0,5.0,-1.0,-44.0,-54.0,4.0,1.0,1.0,-6.0,5.0,-7.0,-50.0,30.0,-6.0,1.0,2.0,1.0,1.0,2.0,45.0,-3.0,8.0,0.0,0.0,4.0,5.0,6.0,3.0,-6.0,-48.0,-2.0,1.0,6.0,17.0,2.0,-28.0,3.0
97,57.0,1.0,-1.0,4.0,-10.0,8.0,23.0,-14.0,24.0,0.0,0.0,-2.0,-4.0,-11.0,-27.0,3.0,2.0,-1.0,-5.0,-4.0,2.0,-10.0,-79.0,-13.0,4.0,2.0,2.0,6.0,11.0,22.0,105.0,47.0,-22.0,-1.0,2.0,1.0,-5.0,1.0,-19.0,3.0,-15.0,-1.0,2.0,6.0,5.0,-4.0,-21.0,-7.0,21.0,4.0,3.0,2.0,-10.0,-4.0,9.0,-4.0,-1.0,-3.0,-2.0,-4.0,5.0,0.0,-51.0,-3.0
98,-22.0,0.0,1.0,1.0,-4.0,0.0,19.0,4.0,21.0,0.0,-1.0,7.0,7.0,12.0,15.0,3.0,-15.0,-1.0,3.0,-1.0,-19.0,0.0,37.0,-6.0,0.0,-1.0,-7.0,-5.0,28.0,-6.0,-44.0,-10.0,-18.0,-1.0,-3.0,-2.0,-17.0,4.0,14.0,-7.0,6.0,-2.0,0.0,-10.0,3.0,-11.0,-29.0,-24.0,25.0,-1.0,0.0,5.0,-15.0,-8.0,32.0,27.0,12.0,-3.0,-3.0,-8.0,-5.0,20.0,-35.0,24.0
99,0.0,-3.0,-3.0,3.0,3.0,1.0,49.0,2.0,-16.0,5.0,4.0,3.0,-5.0,-8.0,-3.0,-4.0,-29.0,-2.0,-3.0,-8.0,9.0,1.0,-21.0,-35.0,14.0,-2.0,-7.0,-8.0,-20.0,-14.0,16.0,20.0,-6.0,1.0,1.0,1.0,10.0,8.0,2.0,16.0,-7.0,-1.0,2.0,3.0,-2.0,8.0,26.0,10.0,8.0,1.0,0.0,-1.0,8.0,6.0,32.0,15.0,4.0,0.0,1.0,7.0,9.0,-4.0,-27.0,-26.0
100,-20.0,-3.0,2.0,3.0,-10.0,-10.0,-50.0,-29.0,18.0,-3.0,-5.0,-10.0,-4.0,-3.0,9.0,10.0,3.0,2.0,0.0,0.0,8.0,1.0,2.0,-11.0,7.0,3.0,4.0,8.0,-1.0,12.0,-18.0,5.0,-34.0,-2.0,2.0,1.0,-26.0,-6.0,-1.0,-2.0,34.0,-3.0,-4.0,-5.0,36.0,-3.0,2.0,-15.0,-44.0,-3.0,-3.0,0.0,-3.0,21.0,76.0,18.0,51.0,4.0,1.0,2.0,-5.0,5.0,-14.0,7.0
101,7.0,0.0,-2.0,4.0,2.0,-10.0,-8.0,-17.0,-21.0,-4.0,-5.0,-13.0,-25.0,-2.0,-70.0,4.0,-8.0,-2.0,2.0,4.0,2.0,-9.0,-48.0,-14.0,-9.0,0.0,-1.0,3.0,14.0,0.0,120.0,25.0,4.0,0.0,-3.0,-8.0,-1.0,4.0,-25.0,-20.0,-21.0,0.0,-3.0,5.0,-2.0,9.0,21.0,21.0,33.0,2.0,-1.0,1.0,-4.0,-16.0,-74.0,-6.0,-18.0,-4.0,-2.0,-1.0,-8.0,4.0,25.0,1.0
102,22.0,0.0,0.0,1.0,16.0,-8.0,6.0,6.0,-5.0,1.0,2.0,1.0,0.0,7.0,27.0,11.0,-3.0,-5.0,-1.0,-3.0,6.0,1.0,33.0,-13.0,-52.0,-2.0,4.0,4.0,10.0,-1.0,-21.0,-15.0,72.0,2.0,-3.0,-8.0,-16.0,-5.0,-11.0,-2.0,1.0,1.0,2.0,4.0,-11.0,-1.0,11.0,29.0,1.0,-1.0,-5.0,-5.0,14.0,-9.0,-15.0,-9.0,-18.0,-4.0,-1.0,-5.0,-16.0,-2.0,-64.0,-17.0
103,-46.0,-3.0,0.0,1.0,13.0,6.0,80.0,51.0,81.0,4.0,3.0,0.0,2.0,6.0,-20.0,-20.0,7.0,1.0,1.0,4.0,1.0,7.0,3.0,18.0,-6.0,-3.0,-3.0,4.0,11.0,2.0,-3.0,-7.0,-6.0,2.0,3.0,-3.0,-9.0,-7.0,-49.0,-3.0,-15.0,-4.0,-4.0,-6.0,-13.0,-13.0,-33.0,-16.0,-7.0,1.0,0.0,0.0,4.0,7.0,126.0,25.0,14.0,1.0,1.0,1.0,15.0,6.0,-54.0,-18.0
104,-10.0,1.0,3.0,6.0,-10.0,-1.0,19.0,2.0,-60.0,-4.0,-4.0,3.0,16.0,6.0,-50.0,-39.0,59.0,6.0,6.0,6.0,-14.0,-11.0,51.0,13.0,-1.0,-6.0,-15.0,-27.0,21.0,30.0,30.0,8.0,4.0,-2.0,1.0,2.0,-9.0,2.0,-63.0,-14.0,-56.0,0.0,7.0,6.0,27.0,-5.0,21.0,13.0,48.0,-2.0,-4.0,0.0,-16.0,3.0,23.0,-17.0,0.0,-1.0,2.0,11.0,4.0,-7.0,-26.0,2.0
105,1.0,3.0,0.0,-13.0,4.0,3.0,6.0,-9.0,2.0,0.0,2.0,10.0,-9.0,3.0,29.0,8.0,-43.0,0.0,1.0,0.0,-1.0,-16.0,-128.0,-32.0,24.0,-4.0,-7.0,-21.0,-16.0,-7.0,119.0,40.0,7.0,-2.0,-5.0,-1.0,12.0,15.0,-49.0,-25.0,-7.0,2.0,3.0,10.0,-5.0,-2.0,31.0,12.0,-7.0,-3.0,0.0,-6.0,11.0,-5.0,-39.0,1.0,-27.0,0.0,4.0,6.0,-22.0,-22.0,-17.0,-22.0
106,-23.0,-1.0,-2.0,-2.0,14.0,23.0,63.0,10.0,71.0,2.0,0.0,-2.0,-2.0,2.0,-14.0,-2.0,-36.0,-3.0,-2.0,-1.0,-10.0,-6.0,-40.0,-6.0,-4.0,-5.0,-2.0,0.0,-2.0,-4.0,-15.0,13.0,-4.0,-2.0,-3.0,1.0,16.0,-4.0,-21.0,-16.0,-9.0,-1.0,-1.0,-2.0,-13.0,-6.0,24.0,2.0,5.0,0.0,-1.0,-7.0,-7.0,8.0,-13.0,1.0,3.0,0.0,0.0,-4.0,7.0,-2.0,-44.0,-11.0
107,-15.0,0.0,1.0,7.0,-6.0,-11.0,18.0,-11.0,32.0,-7.0,-8.0,-13.0,0.0,-8.0,-4.0,26.0,-29.0,-6.0,-9.0,-5.0,-23.0,-19.0,-78.0,-29.0,10.0,3.0,3.0,5.0,18.0,35.0,68.0,0.0,1.0,1.0,-2.0,4.0,4.0,-1.0,24.0,-17.0,-18.0,-3.0,0.0,7.0,-1.0,-13.0,-10.0,13.0,-8.0,1.0,-4.0,-10.0,9.0,-5.0,-41.0,11.0,32.0,1.0,-1.0,3.0,-21.0,-1.0,13.0,0.0
108,-7.0,-1.0,-4.0,-22.0,0.0,10.0,-21.0,-4.0,-15.0,3.0,3.0,-5.0,-2.0,9.0,6.0,-8.0,8.0,-2.0,1.0,-4.0,-6.0,-7.0,12.0,12.0,-20.0,2.0,3.0,4.0,-10.0,-10.0,-62.0,-5.0,15.0,-4.0,0.0,12.0,27.0,-2.0,-4.0,10.0,-8.0,-4.0,-2.0,-4.0,-12.0,6.0,5.0,-22.0,-23.0,1.0,1.0,2.0,30.0,9.0,40.0,-4.0,42.0,-8.0,-7.0,-11.0,-25.0,-10.0,-38.0,-5.0
109,4.0,4.0,7.0,14.0,-1.0,-2.0,12.0,30.0,-7.0,-1.0,-9.0,-15.0,0.0,10.0,24.0,-10.0,4.0,0.0,-4.0,-7.0,-4.0,9.0,16.0,-1.0,-30.0,0.0,2.0,9.0,16.0,9.0,48.0,-9.0,7.0,-4.0,-2.0,-3.0,-14.0,-20.0,-25.0,6.0,2.0,1.0,6.0,11.0,-1.0,-1.0,-52.0,-2.0,-12.0,0.0,1.0,-6.0,0.0,-14.0,-52.0,-34.0,7.0,3.0,1.0,2.0,17.0,17.0,76.0,8.0
110,-6.0,-2.0,-4.0,-5.0,-14.0,-3.0,-25.0,36.0,-15.0,3.0,1.0,0.0,7.0,1.0,33.0,0.0,61.0,-1.0,-2.0,2.0,-6.0,-18.0,11.0,8.0,-6.0,1.0,-1.0,4.0,10.0,10.0,-79.0,-13.0,3.0,-1.0,-2.0,-5.0,-11.0,-4.0,67.0,5.0,-14.0,-3.0,-1.0,-1.0,13.0,9.0,-68.0,-42.0,-5.0,2.0,3.0,5.0,-10.0,-2.0,92.0,53.0,0.0,-1.0,0.0,-1.0,-12.0,10.0,-3.0,-20.0
111,-5.0,0.0,1.0,3.0,34.0,-13.0,-40.0,-26.0,1.0,-1.0,-4.0,-10.0,-22.0,-6.0,-31.0,18.0,-13.0,-6.0,-4.0,0.0,-13.0,-21.0,-56.0,-37.0,4.0,4.0,6.0,9.0,22.0,12.0,30.0,33.0,-9.0,-1.0,-3.0,-6.0,-6.0,12.0,51.0,-4.0,12.0,0.0,4.0,9.0,7.0,-2.0,29.0,18.0,-33.0,-3.0,-1.0,-2.0,-8.0,5.0,-35.0,10.0,21.0,-1.0,-5.0,-13.0,-5.0,-1.0,-16.0,-24.0
112,-42.0,-3.0,-1.0,6.0,12.0,-8.0,-40.0,4.0,54.0,4.0,-2.0,7.0,3.0,-11.0,-1.0,8.0,0.0,3.0,0.0,-2.0,-10.0,23.0,16.0,17.0,-23.0,-1.0,3.0,2.0,9.0,1.0,22.0,-32.0,-3.0,-6.0,-9.0,-17.0,-16.0,8.0,16.0,2.0,-15.0,-2.0,-2.0,-7.0,0.0,0.0,-17.0,-15.0,-6.0,-1.0,1.0,9.0,-2.0,-12.0,-39.0,-8.0,3.0,1.0,2.0,8.0,16.0,0.0,53.0,16.0
113,5.0,-4.0,0.0,-2.0,-17.0,-7.0,-72.0,7.0,12.0,-1.0,0.0,-1.0,11.0,2.0,97.0,47.0,19.0,1.0,-1.0,0.0,5.0,14.0,3.0,-24.0,-16.0,0.0,-2.0,-12.0,-5.0,-2.0,-18.0,1.0,-7.0,2.0,2.0,7.0,-3.0,-9.0,20.0,7.0,6.0,1.0,5.0,5.0,14.0,11.0,-34.0,-15.0,-4.0,-5.0,-9.0,-18.0,-1.0,1.0,59.0,10.0,-44.0,-2.0,0.0,15.0,2.0,5.0,-29.0,7.0
114,55.0,0.0,-1.0,-8.0,1.0,-12.0,-79.0,-22.0,-27.0,1.0,-2.0,-1.0,12.0,15.0,25.0,-19.0,13.0,1.0,3.0,6.0,-4.0,5.0,88.0,27.0,-20.0,-2.0,-2.0,-6.0,8.0,-8.0,-90.0,-6.0,21.0,3.0,5.0,15.0,-1.0,4.0,86.0,9.0,-10.0,-4.0,-1.0,-2.0,-3.0,1.0,-25.0,-7.0,-1.0,-2.0,-3.0,0.0,9.0,-1.0,-24.0,1.0,12.0,-2.0,-2.0,2.0,-9.0,-14.0,-17.0,-1.0
115,-18.0,4.0,2.0,-3.0,-7.0,9.0,-2.0,22.0,1.0,0.0,-3.0,-11.0,-4.0,-7.0,-53.0,-40.0,5.0,-3.0,-1.0,3.0,-4.0,-5.0,42.0,-25.0,-40.0,-1.0,0.0,14.0,-1.0,8.0,74.0,46.0,54.0,2.0,-6.0,-16.0,12.0,1.0,-64.0,-40.0,-17.0,-3.0,-11.0,-19.0,-12.0,-1.0,62.0,14.0,-15.0,-2.0,1.0,3.0,1.0,1.0,-63.0,-13.0,9.0,-2.0,1.0,-4.0,-11.0,-8.0,-100.0,-35.0
116,-33.0,-6.0,-3.0,6.0,5.0,-33.0,-54.0,-18.0,4.0,5.0,4.0,8.0,-6.0,22.0,46.0,40.0,-1.0,0.0,2.0,9.0,13.0,-15.0,22.0,1.0,35.0,0.0,-6.0,-28.0,8.0,48.0,83.0,37.0,-12.0,-5.0,-5.0,5.0,-9.0,2.0,-48.0,-13.0,3.0,1.0,5.0,4.0,-5.0,-22.0,-68.0,0.0,5.0,4.0,5.0,10.0,7.0,-5.0,37.0,-7.0,-40.0,-4.0,-3.0,-8.0,16.0,10.0,-6.0,-5.0
117,54.0,0.0,-2.0,3.0,-12.0,2.0,37.0,8.0,-10.0,-2.0,1.0,0.0,9.0,0.0,-20.0,-6.0,-19.0,0.0,0.0,5.0,0.0,4.0,-6.0,12.0,24.0,2.0,2.0,7.0,9.0,-14.0,-98.0,-24.0,-55.0,-3.0,-7.0,-13.0,1.0,14.0,127.0,26.0,65.0,2.0,0.0,11.0,-4.0,4.0,-66.0,-6.0,2.0,1.0,3.0,-2.0,-2.0,-1.0,-19.0,-8.0,8.0,4.0,3.0,7.0,18.0,17.0,109.0,13.0
118,-17.0,-2.0,1.0,-6.0,3.0,-14.0,-60.0,-25.0,-10.0,-2.0,3.0,-2.0,-15.0,1.0,38.0,26.0,-8.0,-5.0,-7.0,-5.0,11.0,9.0,-23.0,-12.0,16.0,0.0,-1.0,4.0,-1.0,-8.0,-22.0,-12.0,-4.0,2.0,2.0,9.0,-6.0,2.0,-14.0,-3.0,-23.0,-1.0,-2.0,-4.0,0.0,-9.0,11.0,-6.0,15.0,-2.0,-3.0,-8.0,-5.0,-3.0,-45.0,2.0,-13.0,-4.0,-4.0,4.0,1.0,-15.0,-66.0,-44.0
119,7.0,5.0,8.0,1.0,5.0,20.0,82.0,30.0,-12.0,-1.0,1.0,4.0,8.0,3.0,-48.0,-34.0,-2.0,1.0,1.0,4.0,6.0,-14.0,-44.0,23.0,-37.0,-1.0,-2.0,-18.0,9.0,13.0,76.0,7.0,69.0,2.0,4.0,13.0,-5.0,4.0,-48.0,-26.0,-4.0,-7.0,-9.0,-22.0,-21.0,8.0,48.0,24.0,4.0,-1.0,0.0,7.0,16.0,1.0,-35.0,-7.0,-21.0,-5.0,-3.0,-3.0,-14.0,-11.0,-38.0,-14.0
120,6.0,-3.0,-5.0,-6.0,5.0,1.0,14.0,19.0,-11.0,0.0,3.0,8.0,6.0,-9.0,-45.0,-22.0,20.0,6.0,2.0,0.0,0.0,12.0,63.0,22.0,8.0,1.0,1.0,1.0,9.0,2.0,-7.0,12.0,-19.0,0.0,-1.0,-1.0,-8.0,-3.0,6.0,0.0,-65.0,-5.0,-3.0,3.0,3.0,-11.0,-109.0,-42.0,78.0,8.0,5.0,-5.0,-2.0,-3.0,127.0,49.0,14.0,2.0,-1.0,1.0,11.0,23.0,-3.0,10.0
121,-26.0,-5.0,-1.0,-6.0,-17.0,-16.0,-44.0,3.0,7.0,0.0,-3.0,2.0,8.0,16.0,31.0,-1.0,-31.0,-4.0,-4.0,-7.0,0.0,-2.0,-41.0,-28.0,19.0,-3.0,0.0,2.0,10.0,0.0,-2.0,1.0,-8.0,1.0,1.0,5.0,-4.0,-11.0,-59.0,-11.0,3.0,0.0,0.0,-3.0,-15.0,-7.0,47.0,18.0,-21.0,-3.0,1.0,0.0,24.0,2.0,-75.0,-18.0,39.0,6.0,4.0,7.0,4.0,22.0,104.0,68.0
122,-28.0,-3.0,-4.0,-10.0,9.0,21.0,-2.0,-13.0,-26.0,-6.0,-4.0,1.0,6.0,-10.0,-48.0,-22.0,48.0,4.0,0.0,-3.0,-15.0,6.0,4.0,15.0,-27.0,-4.0,-2.0,8.0,10.0,-7.0,-54.0,-14.0,34.0,4.0,2.0,-9.0,-7.0,-14.0,-11.0,-17.0,3.0,2.0,0.0,2.0,9.0,6.0,52.0,28.0,-26.0,-3.0,-1.0,-6.0,-14.0,-3.0,-32.0,-11.0,-10.0,-5.0,-5.0,-12.0,-3.0,-4.0,-8.0,-30.0
123,-33.0,-1.0,0.0,6.0,-7.0,4.0,39.0,24.0,70.0,2.0,4.0,2.0,17.0,4.0,4.0,-23.0,-29.0,-3.0,-4.0,-2.0,-1.0,4.0,2.0,22.0,14.0,0.0,-2.0,5.0,-9.0,-3.0,21.0,-10.0,-16.0,-2.0,-2.0,1.0,3.0,1.0,-64.0,-25.0,-3.0,-1.0,0.0,4.0,11.0,12.0,51.0,33.0,-3.0,2.0,3.0,-1.0,10.0,3.0,86.0,-2.0,-21.0,-5.0,-5.0,-4.0,-13.0,4.0,-45.0,-25.0
124,30.0,1.0,-3.0,-4.0,-8.0,-9.0,-23.0,2.0,-70.0,-2.0,0.0,-2.0,1.0,-1.0,10.0,-3.0,90.0,2.0,3.0,2.0,-9.0,-10.0,-6.0,-6.0,-4.0,1.0,0.0,-9.0,-3.0,-5.0,-57.0,6.0,-22.0,-1.0,-2.0,9.0,21.0,-9.0,-76.0,-40.0,10.0,-3.0,-6.0,-7.0,-7.0,1.0,99.0,23.0,-36.0,-4.0,-5.0,-7.0,10.0,18.0,3.0,-9.0,18.0,2.0,1.0,-1.0,8.0,-9.0,-39.0,13.0
125,0.0,-2.0,-1.0,4.0,-13.0,8.0,21.0,10.0,-7.0,-3.0,0.0,-3.0,1.0,-1.0,-6.0,-3.0,-2.0,-2.0,1.0,5.0,-8.0,-13.0,-8.0,2.0,19.0,1.0,0.0,0.0,19.0,-1.0,-31.0,-2.0,-13.0,-4.0,-1.0,-11.0,-20.0,-7.0,64.0,18.0,12.0,-3.0,0.0,-1.0,-2.0,9.0,-19.0,-1.0,-24.0,-4.0,-4.0,-1.0,-10.0,-3.0,-7.0,-26.0,-36.0,-3.0,-1.0,-3.0,-7.0,-4.0,-44.0,31.0
126,42.0,0.0,-3.0,-17.0,1.0,-5.0,22.0,-26.0,-3.0,1.0,1.0,6.0,2.0,6.0,-7.0,5.0,-15.0,-3.0,-5.0,0.0,-11.0,-7.0,-7.0,8.0,-5.0,-1.0,1.0,1.0,14.0,14.0,25.0,6.0,-21.0,-3.0,-5.0,-6.0,-2.0,14.0,61.0,5.0,13.0,2.0,0.0,0.0,-3.0,-10.0,-36.0,-7.0,-18.0,-2.0,-1.0,-3.0,12.0,0.0,-71.0,5.0,7.0,2.0,3.0,10.0,-6.0,1.0,56.0,24.0
127,-4.0,-2.0,-1.0,-1.0,3.0,-2.0,-29.0,-20.0,3.0,0.0,-1.0,-5.0,3.0,1.0,-14.0,-20.0,9.0,2.0,6.0,13.0,0.0,-13.0,45.0,26.0,7.0,-1.0,-4.0,-12.0,2.0,10.0,-48.0,-16.0,-4.0,-1.0,-1.0,4.0,1.0,10.0,84.0,-1.0,-39.0,-4.0,-5.0,-4.0,4.0,-7.0,-46.0,29.0,27.0,1.0,-3.0,-4.0,-3.0,1.0,-35.0,-11.0,5.0,-2.0,1.0,9.0,1.0,5.0,50.0,-24.0
128,3.0,0.0,-1.0,7.0,9.0,-9.0,-71.0,30.0,-8.0,0.0,-1.0,-5.0,16.0,2.0,65.0,-21.0,-24.0,-5.0,-6.0,-8.0,-14.0,7.0,23.0,0.0,6.0,1.0,-2.0,-3.0,-1.0,1.0,-15.0,-6.0,0.0,-3.0,0.0,2.0,-7.0,1.0,-68.0,5.0,7.0,0.0,4.0,7.0,1.0,-21.0,8.0,3.0,-20.0,-5.0,-1.0,-13.0,2.0,4.0,-32.0,-20.0,19.0,-2.0,-4.0,-3.0,-9.0,-6.0,18.0,-7.0
129,-10.0,3.0,0.0,1.0,7.0,0.0,10.0,41.0,24.0,3.0,-3.0,0.0,14.0,21.0,42.0,8.0,-70.0,-4.0,0.0,6.0,3.0,9.0,-29.0,-12.0,46.0,0.0,2.0,7.0,-7.0,-11.0,-16.0,-14.0,1.0,1.0,3.0,-5.0,27.0,2.0,19.0,-9.0,4.0,-4.0,-4.0,-17.0,-43.0,6.0,-7.0,4.0,-7.0,2.0,-3.0,2.0,3.0,3.0,19.0,11.0,-13.0,-3.0,-2.0,-1.0,2.0,10.0,-30.0,-13.0
130,-14.0,-3.0,0.0,4.0,-1.0,-21.0,-87.0,-66.0,27.0,1.0,-1.0,-6.0,3.0,4.0,66.0,42.0,6.0,1.0,2.0,1.0,1.0,13.0,8.0,7.0,-15.0,5.0,4.0,3.0,15.0,12.0,24.0,10.0,35.0,-1.0,-4.0,-15.0,-21.0,1.0,5.0,14.0,-13.0,-1.0,-5.0,2.0,12.0,-7.0,-69.0,-32.0,8.0,-2.0,1.0,5.0,-11.0,-9.0,8.0,-14.0,2.0,3.0,5.0,16.0,21.0,5.0,37.0,-3.0
131,-35.0,-3.0,-4.0,-15.0,-18.0,13.0,38.0,15.0,48.0,1.0,1.0,2.0,-12.0,-12.0,-58.0,-8.0,-7.0,0.0,-1.0,-6.0,15.0,9.0,-12.0,2.0,-4.0,-5.0,-5.0,0.0,-5.0,6.0,20.0,-9.0,6.0,1.0,2.0,10.0,6.0,-3.0,34.0,-4.0,-30.0,-2.0,-6.0,-2.0,14.0,3.0,-34.0,-15.0,22.0,-1.0,-3.0,-4.0,-9.0,-7.0,-32.0,-3.0,-15.0,3.0,5.0,0.0,10.0,4.0,30.0,22.0
132,8.0,-3.0,3.0,11.0,-21.0,-8.0,-13.0,0.0,-2.0,-1.0,-2.0,-12.0,27.0,6.0,27.0,-2.0,-10.0,-2.0,-4.0,-2.0,-12.0,1.0,23.0,-20.0,-2.0,-1.0,1.0,-2.0,-3.0,3.0,-24.0,-12.0,4.0,1.0,-1.0,-2.0,-3.0,2.0,7.0,47.0,-8.0,-2.0,2.0,9.0,-3.0,-13.0,-74.0,-57.0,13.0,-3.0,-3.0,-2.0,17.0,6.0,64.0,24.0,-34.0,-5.0,-3.0,-6.0,-3.0,10.0,-19.0,-5.0
133,29.0,2.0,-2.0,10.0,-3.0,1.0,-19.0,-18.0,-5.0,0.0,6.0,10.0,11.0,-6.0,28.0,19.0,6.0,1.0,0.0,1.0,2.0,-15.0,-24.0,-11.0,-15.0,0.0,0.0,0.0,-2.0,21.0,69.0,11.0,-5.0,1.0,-4.0,-3.0,-6.0,0.0,-6.0,0.0,2.0,1.0,1.0,7.0,11.0,0.0,4.0,12.0,-1.0,3.0,6.0,7.0,5.0,1.0,-5.0,-3.0,-36.0,-2.0,-3.0,-8.0,5.0,-19.0,-102.0,0.0
134,66.0,-1.0,-2.0,-5.0,-14.0,-15.0,61.0,-13.0,4.0,-2.0,-4.0,-8.0,-8.0,27.0,23.0,8.0,-12.0,0.0,-2.0,-2.0,-5.0,3.0,1.0,9.0,3.0,-5.0,-4.0,-2.0,8.0,2.0,-43.0,-8.0,-22.0,-1.0,4.0,13.0,18.0,-16.0,-32.0,-23.0,0.0,8.0,3.0,-20.0,-22.0,-11.0,-77.0,25.0,19.0,1.0,-3.0,3.0,5.0,15.0,96.0,23.0,-6.0,-4.0,-5.0,-14.0,0.0,15.0,21.0,27.0
135,-22.0,3.0,5.0,10.0,0.0,5.0,-6.0,-4.0,16.0,-5.0,-3.0,7.0,6.0,-6.0,-4.0,1.0,-26.0,1.0,0.0,-3.0,-4.0,-6.0,-85.0,-22.0,9.0,1.0,2.0,3.0,-5.0,-14.0,-15.0,-8.0,12.0,-2.0,-2.0,-7.0,7.0,12.0,67.0,22.0,-35.0,1.0,2.0,10.0,-8.0,2.0,-51.0,-2.0,76.0,-3.0,-2.0,-10.0,11.0,0.0,44.0,-2.0,-5.0,1.0,1.0,6.0,8.0,16.0,26.0,2.0
136,5.0,-3.0,-3.0,0.0,-4.0,-2.0,-39.0,1.0,-29.0,-1.0,0.0,1.0,-2.0,-6.0,32.0,5.0,12.0,3.0,5.0,-1.0,-4.0,-5.0,-35.0,-15.0,19.0,-2.0,-10.0,-26.0,0.0,7.0,-37.0,-22.0,-34.0,-3.0,-1.0,-4.0,-6.0,-7.0,-19.0,9.0,17.0,-1.0,0.0,2.0,4.0,10.0,102.0,-14.0,-8.0,-1.0,1.0,4.0,11.0,7.0,-14.0,33.0,12.0,1.0,2.0,11.0,8.0,9.0,5.0,-10.0
137,-18.0,-1.0,-1.0,-7.0,0.0,-8.0,-13.0,5.0,2.0,-5.0,-2.0,0.0,-7.0,-18.0,-30.0,-19.0,-59.0,-6.0,-5.0,-15.0,-10.0,-7.0,-68.0,-21.0,67.0,6.0,4.0,8.0,12.0,11.0,13.0,10.0,-15.0,-4.0,-3.0,-1.0,7.0,7.0,34.0,17.0,20.0,3.0,1.0,2.0,-2.0,11.0,53.0,13.0,-25.0,2.0,1.0,8.0,12.0,-4.0,-11.0,-22.0,-16.0,-2.0,-3.0,1.0,-7.0,-6.0,-7.0,8.0
138,0.0,-3.0,-8.0,-22.0,-21.0,1.0,-64.0,-28.0,-7.0,-6.0,-6.0,-6.0,9.0,-3.0,-39.0,-14.0,6.0,2.0,2.0,2.0,-1.0,-3.0,74.0,28.0,0.0,0.0,-2.0,0.0,-10.0,-5.0,-17.0,-8.0,4.0,2.0,4.0,19.0,33.0,11.0,57.0,5.0,-4.0,-3.0,-6.0,-19.0,-19.0,5.0,-9.0,7.0,2.0,-3.0,-2.0,-6.0,-7.0,-4.0,-27.0,-9.0,-41.0,-2.0,4.0,4.0,4.0,-6.0,-57.0,1.0
139,36.0,4.0,4.0,14.0,-4.0,-14.0,47.0,2.0,17.0,-4.0,-7.0,-18.0,0.0,6.0,12.0,4.0,8.0,1.0,-5.0,-5.0,5.0,8.0,-13.0,-20.0,7.0,0.0,-5.0,-4.0,-14.0,4.0,49.0,20.0,-14.0,2.0,2.0,-3.0,14.0,8.0,-64.0,-18.0,-20.0,-2.0,0.0,-8.0,-10.0,-7.0,-22.0,-6.0,7.0,1.0,-2.0,5.0,12.0,11.0,52.0,23.0,7.0,-2.0,1.0,5.0,-3.0,2.0,-50.0,-29.0
140,-20.0,-3.0,-1.0,-11.0,14.0,3.0,23.0,12.0,14.0,-2.0,2.0,13.0,-1.0,3.0,47.0,4.0,-9.0,-1.0,-1.0,-5.0,1.0,2.0,-30.0,-4.0,3.0,-1.0,0.0,0.0,0.0,-4.0,-6.0,-5.0,-3.0,2.0,2.0,8.0,-4.0,-5.0,5.0,6.0,0.0,2.0,5.0,13.0,0.0,-7.0,-36.0,-4.0,0.0,-6.0,-6.0,-12.0,3.0,6.0,20.0,19.0,-23.0,-3.0,0.0,5.0,3.0,1.0,20.0,-13.0
141,20.0,-3.0,-6.0,-7.0,-4.0,-3.0,-46.0,-1.0,-20.0,3.0,5.0,14.0,-21.0,8.0,23.0,-19.0,15.0,2.0,-2.0,-1.0,28.0,0.0,8.0,15.0,27.0,3.0,2.0,3.0,6.0,4.0,27.0,11.0,-14.0,-3.0,-3.0,-1.0,-7.0,-19.0,-71.0,-3.0,-3.0,-2.0,0.0,9.0,9.0,3.0,32.0,-2.0,-15.0,-4.0,-1.0,0.0,3.0,9.0,-14.0,-2.0,-5.0,-1.0,-5.0,-13.0,-5.0,0.0,-86.0,-25.0
142,4.0,1.0,-2.0,1.0,9.0,10.0,115.0,39.0,-1.0,-4.0,-4.0,-10.0,-7.0,-12.0,-67.0,2.0,20.0,0.0,2.0,7.0,0.0,-3.0,13.0,0.0,9.0,-1.0,-2.0,-7.0,10.0,12.0,8.0,8.0,-6.0,2.0,4.0,6.0,-20.0,-8.0,-15.0,-13.0,-4.0,-1.0,-3.0,-7.0,16.0,-8.0,-30.0,-3.0,-8.0,-4.0,-6.0,-11.0,-17.0,0.0,-55.0,-11.0,2.0,-1.0,2.0,-1.0,6.0,-2.0,81.0,0.0
143,-4.0,-3.0,-3.0,1.0,-2.0,-2.0,-11.0,16.0,-24.0,-3.0,2.0,2.0,11.0,16.0,52.0,1.0,15.0,2.0,2.0,6.0,2.0,0.0,-48.0,-11.0,5.0,1.0,-1.0,-2.0,-3.0,0.0,-32.0,-17.0,-6.0,-1.0,-1.0,-7.0,-8.0,-1.0,70.0,-17.0,-1.0,-2.0,-3.0,1.0,20.0,0.0,-27.0,2.0,-9.0,-2.0,1.0,5.0,-14.0,1.0,-22.0,-10.0,-18.0,0.0,5.0,14.0,10.0,2.0,6.0,10.0
144,6.0,-5.0,-8.0,-28.0,0.0,1.0,-1.0,-9.0,-11.0,1.0,-1.0,3.0,-15.0,-12.0,-35.0,-7.0,37.0,2.0,3.0,1.0,8.0,1.0,46.0,-7.0,-2.0,0.0,2.0,13.0,4.0,12.0,68.0,18.0,-14.0,-4.0,-3.0,-7.0,13.0,3.0,-69.0,-9.0,12.0,3.0,2.0,2.0,-14.0,-6.0,-1.0,-9.0,-63.0,-1.0,2.0,-4.0,0.0,12.0,32.0,7.0,88.0,1.0,-5.0,-3.0,-3.0,-7.0,-19.0,4.0
145,-17.0,0.0,3.0,9.0,-6.0,11.0,18.0,-23.0,-4.0,2.0,0.0,-3.0,3.0,-9.0,-16.0,11.0,9.0,2.0,3.0,9.0,14.0,-6.0,-2.0,-6.0,-15.0,-3.0,-4.0,0.0,-12.0,7.0,-2.0,8.0,-5.0,-1.0,-1.0,-18.0,-3.0,4.0,-54.0,-14.0,22.0,2.0,-2.0,4.0,-6.0,-5.0,53.0,19.0,-19.0,-4.0,1.0,0.0,-12.0,1.0,19.0,-12.0,-13.0,0.0,-2.0,-1.0,23.0,-8.0,-22.0,10.0
146,26.0,3.0,6.0,22.0,4.0,-2.0,18.0,4.0,-50.0,-6.0,-8.0,-30.0,-3.0,4.0,-12.0,-16.0,42.0,0.0,-3.0,-8.0,-9.0,2.0,-12.0,8.0,-6.0,-4.0,-3.0,-3.0,8.0,7.0,-2.0,-4.0,-16.0,-1.0,1.0,9.0,3.0,12.0,40.0,5.0,-20.0,4.0,9.0,14.0,-4.0,-12.0,-22.0,0.0,22.0,2.0,-1.0,-6.0,14.0,-1.0,4.0,-5.0,-11.0,-5.0,-7.0,-19.0,-13.0,-3.0,-20.0,-26.0
147,-18.0,2.0,4.0,12.0,9.0,-3.0,1.0,11.0,53.0,-1.0,-5.0,-1.0,-8.0,1.0,22.0,8.0,-13.0,-1.0,-1.0,7.0,9.0,14.0,7.0,2.0,-47.0,3.0,5.0,7.0,-1.0,-4.0,-7.0,-1.0,62.0,7.0,4.0,-1.0,9.0,-1.0,30.0,16.0,24.0,-1.0,-4.0,-5.0,10.0,-3.0,-37.0,-7.0,-12.0,-3.0,1.0,6.0,-24.0,1.0,-42.0,-6.0,-11.0,1.0,3.0,0.0,6.0,-3.0,-5.0,2.0
148,-21.0,-4.0,-2.0,5.0,3.0,11.0,60.0,18.0,10.0,1.0,2.0,3.0,3.0,5.0,-3.0,28.0,-1.0,-2.0,-4.0,-4.0,9.0,-2.0,25.0,3.0,-2.0,0.0,-3.0,-3.0,-1.0,6.0,-61.0,-12.0,-47.0,-3.0,0.0,-5.0,-15.0,-11.0,15.0,28.0,82.0,0.0,-1.0,1.0,6.0,1.0,16.0,-19.0,-41.0,1.0,3.0,4.0,14.0,14.0,1.0,10.0,25.0,1.0,2.0,2.0,-5.0,-9.0,39.0,5.0
149,-21.0,-2.0,-1.0,0.0,2.0,-1.0,-47.0,-7.0,48.0,2.0,2.0,6.0,-1.0,-4.0,-43.0,-22.0,-32.0,-5.0,-5.0,-5.0,3.0,-11.0,-9.0,-18.0,14.0,1.0,-3.0,-7.0,-6.0,17.0,71.0,39.0,14.0,1.0,2.0,3.0,-13.0,0.0,-1.0,6.0,-94.0,-8.0,-5.0,-14.0,8.0,-6.0,35.0,8.0,75.0,-1.0,-3.0,-3.0,-10.0,1.0,-128.0,-39.0,-18.0,1.0,2.0,5.0,1.0,-3.0,65.0,18.0
150,26.0,-3.0,-5.0,-7.0,7.0,15.0,29.0,-10.0,-38.0,2.0,4.0,4.0,-4.0,-6.0,-44.0,9.0,6.0,-1.0,-1.0,-1.0,-3.0,-4.0,25.0,15.0,-4.0,0.0,-3.0,-3.0,23.0,9.0,5.0,-21.0,-26.0,4.0,7.0,16.0,-11.0,-3.0,16.0,19.0,40.0,-4.0,-8.0,-26.0,1.0,-3.0,-35.0,-37.0,-42.0,-6.0,-2.0,-1.0,0.0,-11.0,-43.0,-17.0,19.0,1.0,3.0,9.0,-2.0,4.0,54.0,33.0
151,13.0,1.0,-4.0,-8.0,-7.0,2.0,7.0,22.0,-17.0,0.0,-9.0,-9.0,-8.0,9.0,-10.0,1.0,-21.0,-2.0,-3.0,-1.0,0.0,-1.0,21.0,4.0,8.0,-2.0,1.0,4.0,-4.0,-17.0,-52.0,-38.0,-6.0,-1.0,1.0,2.0,18.0,5.0,-6.0,-18.0,-1.0,0.0,4.0,9.0,-7.0,-4.0,24.0,14.0,-5.0,1.0,-2.0,-6.0,-2.0,10.0,21.0,14.0,-15.0,-7.0,-3.0,1.0,-6.0,-17.0,-96.0,-12.0
152,11.0,-4.0,-2.0,-10.0,15.0,-1.0,44.0,-15.0,-28.0,-3.0,3.0,5.0,-13.0,-1.0,33.0,-4.0,49.0,6.0,5.0,11.0,9.0,3.0,22.0,16.0,-25.0,-3.0,-4.0,-22.0,-12.0,-7.0,-51.0,15.0,32.0,0.0,-7.0,-10.0,0.0,-12.0,-68.0,-35.0,-21.0,-5.0,1.0,-1.0,3.0,3.0,58.0,-7.0,2.0,0.0,-2.0,2.0,3.0,14.0,40.0,40.0,-16.0,-2.0,-1.0,0.0,-9.0,9.0,25.0,-12.0
153,-10.0,3.0,3.0,-2.0,9.0,-3.0,-128.0,-23.0,10.0,5.0,2.0,12.0,-4.0,-1.0,89.0,17.0,2.0,3.0,4.0,5.0,6.0,0.0,-18.0,-3.0,-66.0,0.0,3.0,3.0,-10.0,-14.0,-36.0,-7.0,58.0,-2.0,-8.0,-9.0,9.0,-2.0,7.0,-14.0,9.0,1.0,2.0,-2.0,-10.0,11.0,20.0,11.0,1.0,-3.0,-4.0,1.0,1.0,12.0,-19.0,-2.0,-6.0,1.0,1.0,0.0,-2.0,-2.0,-26.0,7.0
154,-15.0,-2.0,-1.0,-3.0,-7.0,2.0,42.0,-22.0,11.0,1.0,1.0,2.0,8.0,-5.0,-23.0,13.0,-44.0,-6.0,-2.0,8.0,-8.0,-5.0,-24.0,-19.0,67.0,1.0,0.0,4.0,11.0,-18.0,-11.0,30.0,-32.0,-4.0,-7.0,-16.0,2.0,27.0,36.0,-28.0,4.0,0.0,1.0,2.0,-3.0,-2.0,31.0,26.0,-4.0,-2.0,-4.0,-6.0,2.0,2.0,15.0,10.0,-3.0,-2.0,2.0,14.0,3.0,-5.0,-58.0,-6.0
155,-6.0,4.0,8.0,10.0,-2.0,-19.0,-11.0,-4.0,-18.0,-6.0,-4.0,-3.0,4.0,-3.0,-18.0,2.0,14.0,-1.0,-5.0,-7.0,-7.0,5.0,4.0,-26.0,3.0,-3.0,-2.0,-4.0,1.0,7.0,38.0,33.0,-8.0,1.0,3.0,5.0,5.0,10.0,3.0,-10.0,14.0,2.0,-2.0,-5.0,-6.0,6.0,14.0,-4.0,-9.0,1.0,4.0,16.0,11.0,-10.0,4.0,23.0,25.0,2.0,-3.0,-14.0,0.0,1.0,-2.0,-26.0
156,22.0,0.0,1.0,2.0,-5.0,-5.0,-19.0,2.0,-19.0,-2.0,-3.0,-2.0,-7.0,-7.0,8.0,-7.0,10.0,0.0,0.0,-1.0,6.0,-6.0,-28.0,-7.0,-43.0,-3.0,1.0,1.0,5.0,-7.0,-8.0,-6.0,21.0,1.0,-2.0,-8.0,-24.0,-11.0,-41.0,26.0,66.0,0.0,-4.0,-10.0,10.0,5.0,-8.0,-28.0,-3.0,2.0,3.0,6.0,17.0,34.0,94.0,2.0,0.0,1.0,1.0,9.0,1.0,4.0,-8.0,-5.0
157,-19.0,-2.0,-3.0,-12.0,-1.0,-1.0,-34.0,5.0,-24.0,-1.0,-4.0,-4.0,-6.0,-8.0,-17.0,10.0,18.0,1.0,3.0,2.0,-1.0,-4.0,30.0,3.0,-1.0,0.0,-3.0,0.0,3.0,1.0,5.0,-8.0,-7.0,-3.0,3.0,8.0,-1.0,-9.0,-29.0,-12.0,-1.0,1.0,1.0,1.0,7.0,-11.0,4.0,3.0,-7.0,-3.0,-6.0,-14.0,-18.0,5.0,-20.0,-12.0,-62.0,-4.0,-1.0,-2.0,-21.0,-10.0,-111.0,-44.0
158,89.0,4.0,-3.0,-5.0,12.0,1.0,79.0,56.0,3.0,-5.0,-1.0,13.0,6.0,9.0,106.0,10.0,-7.0,4.0,5.0,6.0,22.0,21.0,-26.0,-17.0,0.0,-5.0,-5.0,-10.0,0.0,-8.0,24.0,-10.0,-16.0,-1.0,0.0,2.0,-5.0,1.0,-51.0,-18.0,-19.0,-1.0,2.0,4.0,-7.0,-16.0,7.0,-1.0,9.0,0.0,0.0,2.0,-13.0,-19.0,-20.0,2.0,7.0,-5.0,-10.0,-13.0,14.0,6.0,-4.0,9.0
159,-18.0,1.0,0.0,-5.0,-3.0,-4.0,-65.0,-37.0,-16.0,-1.0,1.0,-1.0,-8.0,-3.0,48.0,22.0,9.0,-1.0,-1.0,5.0,4.0,13.0,25.0,-3.0,14.0,-2.0,-2.0,9.0,7.0,8.0,1.0,16.0,-22.0,-2.0,-1.0,-1.0,8.0,3.0,24.0,9.0,21.0,1.0,-4.0,-4.0,-8.0,-3.0,-64.0,-11.0,-4.0,2.0,2.0,3.0,5.0,-9.0,-42.0,-1.0,9.0,1.0,-2.0,-8.0,-10.0,-1.0,49.0,12.0
160,-41.0,-3.0,-1.0,-13.0,-4.0,-6.0,2.0,-22.0,26.0,-6.0,-7.0,-6.0,-8.0,1.0,8.0,-6.0,0.0,1.0,3.0,3.0,18.0,19.0,-13.0,6.0,20.0,-1.0,2.0,4.0,-7.0,-6.0,21.0,25.0,-23.0,-2.0,-2.0,3.0,8.0,3.0,-9.0,-7.0,-16.0,1.0,-1.0,-1.0,-10.0,-9.0,-9.0,-2.0,12.0,1.0,2.0,-4.0,3.0,-4.0,-17.0,7.0,-6.0,-1.0,-1.0,0.0,-12.0,-10.0,2.0,13.0
161,-30.0,-3.0,-2.0,-2.0,-1.0,-7.0,-66.0,-60.0,41.0,4.0,-2.0,-5.0,10.0,-2.0,52.0,55.0,-1.0,0.0,1.0,2.0,-2.0,22.0,23.0,1.0,-4.0,-3.0,-5.0,-2.0,1.0,2.0,17.0,-6.0,8.0,-1.0,1.0,3.0,-12.0,9.0,46.0,26.0,-11.0,0.0,-2.0,-6.0,16.0,-4.0,-56.0,-12.0,-48.0,-1.0,2.0,13.0,-6.0,-18.0,-29.0,-7.0,74.0,-1.0,-1.0,-18.0,-20.0,-6.0,-31.0,-13.0
162,11.0,-4.0,-4.0,-2.0,26.0,1.0,33.0,12.0,-28.0,-4.0,-3.0,-4.0,-22.0,11.0,-28.0,-21.0,-2.0,2.0,-1.0,-2.0,0.0,-1.0,4.0,9.0,-12.0,3.0,2.0,10.0,22.0,4.0,-37.0,1.0,19.0,0.0,-1.0,3.0,-5.0,-1.0,42.0,3.0,-14.0,1.0,3.0,0.0,-11.0,-5.0,-16.0,9.0,-16.0,-5.0,0.0,4.0,6.0,-12.0,-66.0,-31.0,11.0,2.0,3.0,-5.0,8.0,6.0,75.0,-10.0
163,2.0,0.0,-5.0,-2.0,-7.0,3.0,15.0,30.0,-4.0,3.0,-2.0,-2.0,7.0,10.0,44.0,21.0,-2.0,-2.0,-3.0,-5.0,0.0,5.0,-10.0,3.0,-14.0,-2.0,2.0,6.0,-11.0,-7.0,-34.0,-6.0,-5.0,2.0,2.0,4.0,11.0,-2.0,-9.0,-1.0,-8.0,1.0,6.0,10.0,-14.0,-6.0,-6.0,-2.0,43.0,0.0,-5.0,-14.0,11.0,-11.0,-4.0,-25.0,-13.0,-4.0,-5.0,0.0,-3.0,3.0,-26.0,26.0
164,-3.0,-5.0,-2.0,0.0,2.0,6.0,-11.0,11.0,-4.0,0.0,-2.0,-10.0,-11.0,-14.0,23.0,-4.0,-22.0,-1.0,-2.0,-10.0,3.0,22.0,89.0,14.0,31.0,3.0,2.0,8.0,3.0,1.0,-19.0,-12.0,9.0,2.0,6.0,13.0,1.0,-9.0,-29.0,-7.0,-21.0,-7.0,-7.0,-6.0,4.0,-8.0,-2.0,-24.0,7.0,1.0,0.0,2.0,-4.0,5.0,-26.0,-2.0,-15.0,2.0,0.0,-2.0,-3.0,-2.0,23.0,24.0
165,5.0,1.0,2.0,3.0,-9.0,7.0,-15.0,13.0,-1.0,2.0,6.0,1.0,21.0,2.0,-27.0,-38.0,-1.0,-1.0,-4.0,-5.0,-10.0,-4.0,-10.0,21.0,-17.0,1.0,4.0,3.0,-10.0,14.0,53.0,-21.0,21.0,-3.0,-2.0,7.0,35.0,0.0,-15.0,2.0,-16.0,-4.0,-6.0,-23.0,-29.0,3.0,-11.0,8.0,-14.0,-3.0,-5.0,-1.0,1.0,-3.0,-6.0,-7.0,22.0,2.0,-2.0,1.0,0.0,-7.0,-13.0,-5.0
166,-25.0,-2.0,-4.0,-3.0,2.0,-1.0,-20.0,-33.0,-7.0,-1.0,-1.0,11.0,6.0,-2.0,19.0,1.0,29.0,-3.0,0.0,-8.0,12.0,-3.0,-24.0,9.0,-19.0,0.0,-3.0,3.0,-10.0,-4.0,32.0,21.0,1.0,0.0,2.0,-2.0,8.0,16.0,48.0,-9.0,8.0,-2.0,-3.0,-2.0,-12.0,12.0,-39.0,-9.0,6.0,-1.0,-2.0,-8.0,6.0,4.0,-22.0,10.0,-37.0,-2.0,0.0,5.0,6.0,-9.0,2.0,-14.0
167,30.0,-2.0,-4.0,-10.0,-27.0,-6.0,-8.0,-1.0,-1.0,3.0,5.0,6.0,10.0,-14.0,-33.0,17.0,-22.0,-6.0,-4.0,1.0,20.0,9.0,14.0,-26.0,-22.0,-4.0,-5.0,-16.0,-7.0,4.0,14.0,-18.0,13.0,3.0,-2.0,-3.0,-10.0,0.0,24.0,31.0,-2.0,-5.0,-2.0,4.0,2.0,1.0,-6.0,-1.0,9.0,5.0,4.0,6.0,0.0,-7.0,6.0,-9.0,-10.0,5.0,6.0,9.0,8.0,-5.0,-25.0,9.0
168,-40.0,-6.0,-8.0,-14.0,-1.0,-7.0,-51.0,-18.0,73.0,7.0,3.0,4.0,-14.0,9.0,62.0,11.0,-11.0,0.0,0.0,4.0,13.0,12.0,-2.0,8.0,15.0,-1.0,-2.0,-4.0,-8.0,0.0,-25.0,3.0,-15.0,-4.0,-1.0,5.0,2.0,-10.0,13.0,-1.0,-6.0,0.0,0.0,-8.0,9.0,-10.0,-80.0,-7.0,-5.0,-7.0,-6.0,0.0,0.0,11.0,70.0,-13.0,-17.0,-2.0,0.0,-4.0,5.0,-2.0,-5.0,-8.0
169,18.0,-1.0,-3.0,-6.0,-14.0,-3.0,-14.0,-1.0,44.0,-1.0,0.0,4.0,10.0,9.0,93.0,28.0,3.0,0.0,-2.0,4.0,3.0,2.0,-37.0,8.0,-5.0,-4.0,2.0,-3.0,-3.0,-1.0,4.0,-4.0,-1.0,1.0,2.0,8.0,14.0,11.0,-10.0,-3.0,-37.0,-4.0,-4.0,-11.0,-26.0,-21.0,-45.0,-28.0,2.0,3.0,1.0,-7.0,10.0,-7.0,40.0,29.0,25.0,0.0,-4.0,4.0,-3.0,17.0,-7.0,-3.0
170,-23.0,0.0,1.0,4.0,-8.0,-8.0,-7.0,-11.0,-5.0,-1.0,-5.0,-11.0,-3.0,1.0,-10.0,0.0,5.0,-1.0,2.0,4.0,11.0,11.0,20.0,10.0,-11.0,-6.0,-3.0,-4.0,-5.0,-17.0,-36.0,-38.0,14.0,2.0,0.0,-6.0,2.0,13.0,59.0,34.0,-50.0,-1.0,3.0,14.0,4.0,-10.0,-83.0,-17.0,60.0,-1.0,-5.0,-3.0,-8.0,8.0,77.0,1.0,5.0,6.0,5.0,5.0,28.0,-8.0,-50.0,5.0
171,-46.0,-4.0,-1.0,-1.0,-18.0,1.0,39.0,11.0,56.0,-3.0,-5.0,-5.0,2.0,0.0,-4.0,-4.0,-20.0,-3.0,0.0,-1.0,-9.0,-3.0,-59.0,4.0,7.0,0.0,-4.0,-2.0,3.0,-3.0,9.0,-7.0,-1.0,-1.0,0.0,1.0,3.0,-5.0,-4.0,-16.0,-8.0,1.0,-3.0,-2.0,5.0,9.0,24.0,14.0,-14.0,-1.0,-1.0,13.0,-8.0,-7.0,-6.0,-4.0,21.0,3.0,1.0,-1.0,15.0,-1.0,-10.0,23.0
172,-7.0,-4.0,-4.0,-12.0,-2.0,-6.0,-63.0,-40.0,-11.0,-3.0,-2.0,-8.0,-13.0,7.0,63.0,2.0,7.0,1.0,1.0,1.0,-9.0,5.0,-13.0,13.0,-23.0,-2.0,-1.0,5.0,10.0,0.0,45.0,5.0,21.0,5.0,3.0,12.0,11.0,-3.0,-22.0,4.0,19.0,-1.0,-3.0,-14.0,-13.0,-2.0,4.0,12.0,-6.0,-1.0,-1.0,0.0,19.0,-3.0,-34.0,-19.0,-36.0,-7.0,-6.0,-4.0,-24.0,3.0,7.0,12.0
173,50.0,1.0,1.0,-8.0,-11.0,1.0,-3.0,-7.0,-14.0,-2.0,1.0,12.0,16.0,-6.0,16.0,21.0,-22.0,1.0,4.0,8.0,10.0,16.0,7.0,7.0,18.0,-1.0,-2.0,-7.0,-5.0,-1.0,-3.0,-11.0,-8.0,-7.0,-6.0,-9.0,-3.0,-7.0,-69.0,-16.0,-10.0,0.0,1.0,4.0,-10.0,-8.0,65.0,6.0,-53.0,-4.0,-5.0,-4.0,17.0,7.0,-15.0,-2.0,60.0,4.0,1.0,12.0,2.0,-2.0,18.0,2.0
174,-3.0,2.0,-3.0,-4.0,0.0,-10.0,12.0,14.0,-19.0,-4.0,-4.0,-16.0,2.0,-5.0,-116.0,-64.0,1.0,1.0,1.0,1.0,-14.0,2.0,64.0,10.0,-19.0,2.0,6.0,1.0,12.0,14.0,30.0,23.0,36.0,-3.0,-3.0,-6.0,-5.0,9.0,2.0,-18.0,3.0,3.0,5.0,13.0,-3.0,-7.0,-42.0,0.0,5.0,-5.0,-3.0,-2.0,18.0,1.0,16.0,-4.0,6.0,1.0,-3.0,-4.0,-17.0,-14.0,-15.0,1.0
175,-26.0,0.0,-3.0,-8.0,-3.0,3.0,26.0,-13.0,-11.0,-5.0,-2.0,2.0,8.0,2.0,40.0,35.0,3.0,2.0,2.0,-8.0,-6.0,8.0,-28.0,-12.0,27.0,-1.0,1.0,5.0,11.0,-4.0,-23.0,-3.0,-24.0,0.0,3.0,11.0,19.0,7.0,29.0,38.0,12.0,3.0,-1.0,-8.0,14.0,9.0,0.0,-9.0,-3.0,0.0,-3.0,0.0,-6.0,-5.0,-38.0,-11.0,-4.0,-2.0,-5.0,-7.0,-18.0,-9.0,3.0,7.0
176,-8.0,2.0,2.0,3.0,10.0,10.0,15.0,14.0,-32.0,-2.0,-3.0,3.0,13.0,7.0,25.0,-17.0,35.0,0.0,-1.0,0.0,-10.0,-4.0,9.0,2.0,-7.0,-1.0,0.0,-1.0,13.0,2.0,-10.0,7.0,16.0,-2.0,-2.0,3.0,-6.0,-1.0,1.0,1.0,-19.0,1.0,2.0,10.0,1.0,-14.0,-4.0,6.0,-31.0,-5.0,-2.0,-6.0,-1.0,-5.0,-96.0,-24.0,41.0,2.0,6.0,14.0,-13.0,-16.0,53.0,-3.0
177,16.0,0.0,-4.0,-26.0,20.0,25.0,42.0,35.0,0.0,-5.0,0.0,8.0,1.0,7.0,-30.0,-35.0,-4.0,-3.0,-3.0,-7.0,8.0,17.0,29.0,19.0,-21.0,-1.0,1.0,7.0,-6.0,-4.0,-56.0,-15.0,-7.0,0.0,4.0,9.0,2.0,-4.0,7.0,-5.0,10.0,1.0,-7.0,-15.0,18.0,7.0,-23.0,5.0,-21.0,0.0,0.0,-4.0,-25.0,-9.0,3.0,-12.0,28.0,-1.0,-2.0,-4.0,3.0,13.0,-24.0,-8.0
178,-2.0,-3.0,-1.0,2.0,3.0,-9.0,25.0,-27.0,2.0,1.0,7.0,10.0,4.0,0.0,8.0,13.0,1.0,-2.0,0.0,-6.0,6.0,6.0,6.0,-4.0,-13.0,-5.0,-3.0,3.0,-4.0,1.0,22.0,17.0,-12.0,-2.0,-2.0,-12.0,-6.0,2.0,-63.0,-27.0,5.0,-2.0,-1.0,6.0,-17.0,-13.0,12.0,-2.0,16.0,2.0,-2.0,-5.0,10.0,5.0,25.0,4.0,-21.0,-5.0,-6.0,-9.0,-5.0,-9.0,-19.0,5.0
179,8.0,0.0,-1.0,4.0,-5.0,-1.0,-3.0,-2.0,-17.0,2.0,1.0,7.0,1.0,-3.0,-10.0,-11.0,7.0,1.0,2.0,3.0,8.0,14.0,23.0,13.0,-61.0,-4.0,-4.0,-16.0,0.0,2.0,-39.0,-30.0,63.0,1.0,-2.0,6.0,-22.0,-10.0,35.0,11.0,10.0,1.0,3.0,5.0,17.0,-7.0,-55.0,30.0,17.0,1.0,-3.0,-3.0,10.0,29.0,88.0,5.0,-11.0,4.0,3.0,3.0,-2.0,5.0,-13.0,-13.0
180,-18.0,2.0,6.0,6.0,10.0,-3.0,2.0,11.0,-14.0,-6.0,-6.0,-17.0,-21.0,-3.0,-24.0,-14.0,32.0,3.0,4.0,11.0,8.0,-12.0,-62.0,-6.0,-12.0,-5.0,-3.0,-2.0,3.0,-5.0,20.0,1.0,-16.0,-2.0,-2.0,-7.0,-4.0,-5.0,-31.0,-15.0,27.0,1.0,-1.0,0.0,3.0,3.0,50.0,11.0,-23.0,-3.0,-1.0,1.0,2.0,7.0,-5.0,11.0,14.0,-3.0,-3.0,3.0,3.0,1.0,-22.0,-21.0
181,-12.0,2.0,0.0,-8.0,-2.0,9.0,46.0,-4.0,-8.0,1.0,0.0,-2.0,-5.0,7.0,4.0,3.0,5.0,1.0,1.0,5.0,1.0,-5.0,-27.0,8.0,6.0,-1.0,2.0,-2.0,1.0,0.0,5.0,-14.0,-2.0,-2.0,-1.0,9.0,1.0,2.0,6.0,4.0,-4.0,0.0,2.0,-4.0,9.0,-4.0,5.0,-13.0,-6.0,0.0,-3.0,-2.0,-5.0,4.0,-43.0,9.0,7.0,-1.0,-3.0,-1.0,-2.0,-10.0,2.0,0.0
182,16.0,-3.0,-3.0,-7.0,16.0,9.0,3.0,21.0,-1.0,-1.0,2.0,6.0,-10.0,1.0,19.0,-16.0,-9.0,-2.0,-2.0,2.0,8.0,-1.0,9.0,-8.0,8.0,-1.0,0.0,-5.0,-10.0,3.0,-1.0,15.0,-26.0,-3.0,-2.0,2.0,4.0,-4.0,-48.0,-30.0,2.0,3.0,3.0,1.0,-2.0,2.0,57.0,12.0,6.0,-3.0,0.0,-3.0,1.0,-5.0,-19.0,-7.0,-18.0,-5.0,-7.0,-3.0,-7.0,-1.0,28.0,1.0
183,9.0,1.0,-1.0,-2.0,4.0,10.0,33.0,5.0,-18.0,-3.0,-2.0,-5.0,-13.0,-6.0,-47.0,1.0,-2.0,2.0,1.0,-5.0,1.0,-5.0,-6.0,-17.0,9.0,2.0,5.0,7.0,0.0,-5.0,-4.0,-9.0,6.0,2.0,4.0,9.0,7.0,-4.0,-10.0,19.0,-37.0,-7.0,-9.0,-25.0,1.0,12.0,38.0,1.0,18.0,-2.0,-1.0,2.0,8.0,0.0,-1.0,7.0,31.0,0.0,4.0,-2.0,-11.0,1.0,-1.0,8.0
184,-66.0,5.0,-1.0,-2.0,-7.0,-18.0,-86.0,-22.0,80.0,2.0,2.0,9.0,10.0,10.0,73.0,24.0,-13.0,0.0,2.0,2.0,6.0,17.0,-20.0,7.0,-16.0,0.0,-2.0,-5.0,4.0,6.0,27.0,-13.0,6.0,-1.0,3.0,-3.0,-7.0,4.0,-9.0,7.0,-49.0,0.0,3.0,9.0,-1.0,-3.0,-12.0,-17.0,41.0,-1.0,-8.0,-6.0,-10.0,-3.0,-6.0,10.0,14.0,0.0,-2.0,2.0,16.0,0.0,-26.0,5.0
185,-18.0,-6.0,0.0,-1.0,-8.0,2.0,38.0,-4.0,5.0,-1.0,0.0,3.0,15.0,-3.0,-24.0,0.0,-9.0,-3.0,-2.0,-7.0,-11.0,-7.0,-48.0,3.0,-2.0,1.0,2.0,10.0,1.0,-2.0,38.0,9.0,13.0,-4.0,-11.0,-24.0,-2.0,8.0,9.0,-15.0,-5.0,0.0,-1.0,7.0,-24.0,5.0,13.0,1.0,-12.0,3.0,3.0,2.0,43.0,1.0,-5.0,-29.0,3.0,-4.0,-4.0,-3.0,-23.0,-4.0,-4.0,18.0
186,2.0,-1.0,0.0,2.0,1.0,10.0,12.0,3.0,10.0,-2.0,-3.0,-3.0,0.0,-4.0,-37.0,-17.0,-36.0,-6.0,-4.0,-2.0,-8.0,-9.0,26.0,-4.0,1.0,1.0,-2.0,-8.0,-2.0,2.0,-54.0,-16.0,3.0,-4.0,0.0,12.0,10.0,2.0,54.0,3.0,18.0,0.0,0.0,-6.0,9.0,1.0,-19.0,4.0,-16.0,2.0,3.0,7.0,-3.0,4.0,-5.0,7.0,-13.0,-3.0,-4.0,4.0,16.0,-4.0,-62.0,-33.0
187,19.0,-1.0,-3.0,-13.0,-10.0,-2.0,24.0,48.0,-18.0,2.0,-2.0,-1.0,4.0,12.0,71.0,5.0,9.0,5.0,7.0,11.0,6.0,4.0,11.0,-9.0,-7.0,-2.0,0.0,1.0,6.0,5.0,17.0,24.0,16.0,-1.0,-3.0,5.0,-6.0,-11.0,-104.0,-38.0,-27.0,-2.0,0.0,0.0,13.0,12.0,37.0,0.0,55.0,2.0,-2.0,-3.0,-5.0,13.0,29.0,10.0,-20.0,-3.0,-2.0,-1.0,-2.0,-3.0,-15.0,-4.0
188,-14.0,-2.0,0.0,0.0,8.0,-6.0,5.0,-10.0,12.0,-4.0,2.0,4.0,-9.0,-13.0,-66.0,14.0,-48.0,-2.0,3.0,4.0,1.0,11.0,55.0,-12.0,41.0,3.0,-3.0,-5.0,3.0,-2.0,-12.0,-12.0,14.0,-1.0,-4.0,-7.0,-20.0,-8.0,14.0,27.0,1.0,-1.0,-3.0,-2.0,11.0,12.0,-1.0,2.0,-14.0,0.0,0.0,-5.0,1.0,12.0,15.0,15.0,-3.0,-1.0,-3.0,-1.0,-7.0,-7.0,-6.0,1.0
189,-6.0,3.0,10.0,20.0,-1.0,-5.0,4.0,-11.0,1.0,2.0,1.0,-12.0,15.0,-8.0,-25.0,-14.0,5.0,-9.0,-8.0,-10.0,-16.0,0.0,-46.0,-1.0,-12.0,-1.0,0.0,-9.0,-2.0,1.0,-6.0,-1.0,10.0,-3.0,-5.0,2.0,-2.0,3.0,52.0,10.0,-34.0,-4.0,0.0,10.0,21.0,4.0,-2.0,2.0,56.0,3.0,1.0,4.0,-3.0,0.0,17.0,9.0,-13.0,-1.0,-1.0,-9.0,6.0,-3.0,-38.0,-12.0
190,-17.0,5.0,6.0,16.0,18.0,14.0,48.0,0.0,7.0,-2.0,-6.0,-20.0,-25.0,3.0,-33.0,-1.0,-22.0,-8.0,-4.0,-9.0,-5.0,-11.0,-29.0,-19.0,-13.0,1.0,0.0,6.0,-20.0,-10.0,-29.0,7.0,9.0,-4.0,-4.0,-10.0,26.0,3.0,48.0,8.0,-26.0,-4.0,-1.0,8.0,9.0,12.0,20.0,-11.0,43.0,5.0,0.0,4.0,-5.0,8.0,-22.0,5.0,-5.0,-1.0,0.0,-6.0,-1.0,2.0,26.0,-4.0
191,1.0,2.0,2.0,4.0,-6.0,-13.0,-51.0,-14.0,1.0,1.0,1.0,4.0,7.0,-5.0,-13.0,12.0,-55.0,-5.0,-1.0,0.0,0.0,-15.0,-53.0,-13.0,51.0,-3.0,-7.0,-17.0,3.0,4.0,51.0,3.0,-11.0,0.0,1.0,5.0,4.0,26.0,12.0,-4.0,12.0,-1.0,0.0,2.0,2.0,3.0,-26.0,-25.0,-6.0,2.0,3.0,11.0,7.0,4.0,3.0,31.0,-11.0,-3.0,-5.0,-17.0,-13.0,2.0,25.0,7.0
192,0.0,0.0,-3.0,-6.0,-11.0,-13.0,2.0,-3.0,16.0,2.0,-1.0,5.0,6.0,1.0,-3.0,6.0,-8.0,1.0,3.0,9.0,5.0,-3.0,-52.0,-40.0,-12.0,-4.0,-2.0,-1.0,19.0,7.0,65.0,51.0,13.0,-5.0,-2.0,-2.0,-15.0,-3.0,-44.0,1.0,-1.0,-1.0,-1.0,-13.0,-1.0,-2.0,15.0,-11.0,12.0,3.0,-2.0,-3.0,0.0,10.0,40.0,10.0,-15.0,-1.0,5.0,10.0,2.0,-5.0,-69.0,-31.0
193,-10.0,0.0,1.0,-3.0,5.0,7.0,54.0,-2.0,11.0,0.0,-1.0,6.0,0.0,-5.0,-12.0,1.0,-6.0,-2.0,0.0,1.0,1.0,2.0,22.0,-3.0,-14.0,0.0,0.0,1.0,17.0,3.0,-19.0,-22.0,10.0,-6.0,-5.0,-4.0,-24.0,-14.0,-90.0,7.0,-8.0,-3.0,-2.0,-13.0,2.0,3.0,65.0,3.0,-1.0,-3.0,-3.0,-6.0,-3.0,15.0,-12.0,-1.0,5.0,0.0,3.0,10.0,-3.0,1.0,39.0,8.0
194,-15.0,1.0,-2.0,-1.0,9.0,-3.0,-27.0,-11.0,12.0,2.0,3.0,13.0,-7.0,-15.0,-43.0,-11.0,-6.0,-2.0,-4.0,-21.0,27.0,9.0,34.0,-4.0,-5.0,-1.0,-3.0,-5.0,-21.0,3.0,38.0,32.0,-2.0,0.0,2.0,-1.0,6.0,-1.0,26.0,-2.0,11.0,0.0,1.0,0.0,6.0,10.0,-35.0,-3.0,0.0,2.0,0.0,9.0,6.0,-12.0,-29.0,-15.0,-28.0,2.0,5.0,9.0,4.0,5.0,36.0,8.0
195,32.0,-5.0,-8.0,-14.0,-4.0,-5.0,9.0,16.0,-6.0,-1.0,1.0,2.0,7.0,8.0,19.0,6.0,-7.0,-1.0,-6.0,-4.0,-7.0,-1.0,-59.0,-32.0,2.0,-4.0,-1.0,-1.0,1.0,-11.0,20.0,-10.0,-41.0,2.0,-1.0,8.0,1.0,-1.0,-47.0,14.0,47.0,3.0,2.0,1.0,-6.0,2.0,73.0,7.0,-2.0,-6.0,-3.0,0.0,4.0,13.0,2.0,20.0,-15.0,-2.0,-1.0,-2.0,2.0,-7.0,-35.0,-32.0
196,0.0,3.0,4.0,2.0,7.0,2.0,16.0,-16.0,-26.0,0.0,-3.0,4.0,1.0,-11.0,-57.0,19.0,32.0,-2.0,-1.0,-13.0,8.0,9.0,72.0,15.0,12.0,2.0,0.0,11.0,-11.0,7.0,-24.0,13.0,-14.0,0.0,-2.0,-6.0,1.0,-5.0,-31.0,-13.0,7.0,1.0,-3.0,-7.0,0.0,2.0,30.0,-11.0,-21.0,-1.0,2.0,8.0,-10.0,-8.0,10.0,26.0,-9.0,0.0,4.0,11.0,21.0,8.0,14.0,0.0
197,23.0,-2.0,-4.0,-20.0,-15.0,-1.0,-1.0,-1.0,-18.0,-2.0,-4.0,-4.0,1.0,7.0,-49.0,-7.0,-3.0,-1.0,0.0,3.0,-10.0,-10.0,20.0,2.0,13.0,-2.0,-3.0,-8.0,8.0,16.0,36.0,-20.0,-26.0,-3.0,1.0,7.0,8.0,7.0,12.0,-8.0,45.0,1.0,-2.0,-3.0,-7.0,-1.0,-30.0,-4.0,-3.0,1.0,1.0,7.0,4.0,-8.0,-62.0,-1.0,-2.0,-6.0,-7.0,-16.0,-11.0,-5.0,56.0,-11.0
198,1.0,4.0,3.0,7.0,0.0,-1.0,16.0,27.0,-23.0,-3.0,-2.0,-3.0,4.0,9.0,-8.0,-16.0,5.0,-1.0,0.0,11.0,2.0,-1.0,-8.0,1.0,10.0,0.0,-1.0,-1.0,-7.0,-12.0,-45.0,11.0,1.0,-1.0,-1.0,-3.0,3.0,-1.0,15.0,-14.0,-37.0,1.0,1.0,-4.0,1.0,2.0,13.0,8.0,59.0,-3.0,-3.0,-1.0,-5.0,0.0,-36.0,6.0,-8.0,0.0,-2.0,-7.0,9.0,-3.0,4.0,-14.0
199,10.0,-1.0,1.0,4.0,-1.0,6.0,30.0,-1.0,-29.0,0.0,0.0,-7.0,4.0,2.0,-11.0,1.0,20.0,-1.0,-3.0,-6.0,0.0,10.0,68.0,20.0,-25.0,-1.0,-1.0,5.0,-4.0,-3.0,-49.0,3.0,47.0,3.0,-2.0,-2.0,1.0,-10.0,-57.0,-8.0,-17.0,-6.0,-6.0,-2.0,-10.0,-18.0,2.0,-36.0,-15.0,0.0,0.0,0.0,2.0,9.0,30.0,31.0,15.0,1.0,1.0,-1.0,1.0,2.0,38.0,11.0
200,-13.0,-3.0,0.0,1.0,0.0,4.0,-13.0,-2.0,-3.0,-2.0,0.0,2.0,3.0,-5.0,-10.0,7.0,-9.0,4.0,0.0,0.0,-5.0,7.0,-7.0,-15.0,8.0,2.0,0.0,2.0,0.0,-7.0,-38.0,22.0,-12.0,0.0,3.0,3.0,1.0,-3.0,55.0,-22.0,-33.0,-4.0,1.0,4.0,17.0,9.0,-30.0,-2.0,71.0,5.0,0.0,-6.0,0.0,9.0,21.0,1.0,-40.0,1.0,-1.0,0.0,4.0,7.0,8.0,1.0
201,35.0,2.0,3.0,4.0,-3.0,-15.0,-25.0,0.0,10.0,-5.0,-6.0,-1.0,-2.0,4.0,-28.0,-1.0,-11.0,0.0,2.0,-4.0,4.0,-7.0,41.0,-3.0,-5.0,-4.0,-2.0,5.0,-2.0,-13.0,-68.0,-25.0,-5.0,2.0,-3.0,-6.0,3.0,6.0,-4.0,29.0,10.0,1.0,0.0,4.0,-2.0,7.0,46.0,-14.0,-18.0,3.0,3.0,2.0,3.0,1.0,-32.0,6.0,-1.0,-3.0,-7.0,-26.0,-17.0,8.0,30.0,4.0
202,-23.0,-9.0,-1.0,1.0,5.0,-10.0,-46.0,-20.0,26.0,2.0,3.0,10.0,-6.0,9.0,63.0,25.0,-45.0,-5.0,-3.0,-10.0,8.0,0.0,-68.0,-23.0,64.0,5.0,3.0,17.0,17.0,5.0,82.0,-1.0,-20.0,1.0,-2.0,-8.0,-14.0,-1.0,-44.0,9.0,-21.0,-6.0,2.0,2.0,3.0,-10.0,28.0,-13.0,11.0,-5.0,-3.0,4.0,-1.0,8.0,45.0,-11.0,-18.0,1.0,3.0,-4.0,-4.0,-5.0,-58.0,-7.0
203,5.0,0.0,-1.0,0.0,6.0,-12.0,11.0,13.0,18.0,0.0,2.0,2.0,0.0,8.0,7.0,1.0,-27.0,0.0,1.0,3.0,16.0,-1.0,-42.0,-10.0,13.0,4.0,3.0,8.0,-3.0,7.0,69.0,3.0,4.0,0.0,-3.0,-5.0,9.0,-5.0,-32.0,-1.0,2.0,-2.0,-1.0,11.0,-2.0,3.0,-10.0,0.0,-13.0,-2.0,-2.0,-12.0,-3.0,-2.0,29.0,-3.0,7.0,1.0,1.0,-1.0,-2.0,0.0,-20.0,9.0
204,-3.0,-1.0,0.0,8.0,-7.0,5.0,-10.0,-5.0,-9.0,-2.0,-5.0,-19.0,-9.0,-2.0,-38.0,-6.0,-31.0,-1.0,-2.0,4.0,8.0,14.0,80.0,15.0,72.0,0.0,3.0,4.0,-3.0,-5.0,-50.0,-13.0,-9.0,-3.0,-3.0,-1.0,-2.0,-3.0,0.0,-18.0,-17.0,4.0,3.0,5.0,27.0,10.0,23.0,11.0,36.0,-1.0,-5.0,-7.0,-6.0,-5.0,-52.0,-33.0,-45.0,-6.0,-4.0,-1.0,-3.0,-4.0,8.0,23.0
205,6.0,0.0,1.0,14.0,3.0,8.0,19.0,-8.0,15.0,1.0,-4.0,-11.0,1.0,-2.0,30.0,9.0,-21.0,2.0,4.0,1.0,-13.0,1.0,17.0,13.0,-12.0,-5.0,-2.0,4.0,22.0,3.0,-52.0,9.0,-12.0,2.0,-2.0,-8.0,-15.0,-4.0,37.0,5.0,33.0,0.0,4.0,0.0,-3.0,-1.0,-12.0,-10.0,-6.0,-1.0,-2.0,0.0,2.0,-4.0,-12.0,17.0,1.0,-1.0,0.0,-1.0,11.0,-6.0,-80.0,-25.0
206,-10.0,4.0,0.0,-6.0,-9.0,-1.0,79.0,-9.0,-31.0,1.0,-4.0,-4.0,7.0,7.0,-13.0,29.0,62.0,-2.0,-5.0,-4.0,-20.0,-15.0,-92.0,-25.0,7.0,5.0,5.0,12.0,7.0,15.0,114.0,26.0,-13.0,-1.0,-2.0,-8.0,12.0,0.0,-14.0,-1.0,2.0,-1.0,-2.0,-3.0,-6.0,1.0,-9.0,-17.0,-19.0,-3.0,2.0,7.0,10.0,-2.0,-3.0,-27.0,-44.0,-5.0,-7.0,-20.0,-28.0,-2.0,-24.0,30.0
207,57.0,1.0,0.0,0.0,-8.0,-6.0,30.0,8.0,10.0,-2.0,-2.0,-4.0,-1.0,-12.0,-93.0,-10.0,-19.0,-2.0,5.0,8.0,19.0,16.0,81.0,10.0,-29.0,4.0,4.0,15.0,8.0,4.0,3.0,-14.0,41.0,-2.0,-4.0,-9.0,-20.0,-1.0,-5.0,9.0,-3.0,-5.0,-3.0,-4.0,6.0,2.0,-100.0,-16.0,-15.0,0.0,-2.0,4.0,8.0,-6.0,86.0,15.0,11.0,4.0,4.0,-1.0,-1.0,3.0,-45.0,-6.0
208,-20.0,-5.0,-4.0,-8.0,8.0,-8.0,28.0,9.0,-19.0,1.0,-1.0,2.0,0.0,13.0,21.0,-29.0,40.0,-2.0,0.0,-1.0,-7.0,-9.0,-36.0,37.0,-20.0,-4.0,-3.0,-3.0,6.0,0.0,-6.0,-3.0,5.0,0.0,0.0,9.0,5.0,-21.0,-27.0,-12.0,16.0,-3.0,-2.0,-3.0,1.0,7.0,24.0,6.0,-33.0,0.0,0.0,2.0,-1.0,-3.0,-16.0,-20.0,7.0,-1.0,-3.0,1.0,-3.0,4.0,-7.0,-18.0
209,5.0,1.0,3.0,10.0,2.0,-2.0,7.0,-2.0,-43.0,-1.0,0.0,3.0,3.0,3.0,32.0,44.0,42.0,4.0,0.0,-10.0,9.0,-1.0,-5.0,-13.0,11.0,-5.0,-6.0,-5.0,-19.0,-4.0,-15.0,-2.0,-41.0,1.0,3.0,7.0,-12.0,-3.0,-39.0,-10.0,39.0,0.0,-3.0,-8.0,4.0,2.0,63.0,0.0,-16.0,-1.0,-4.0,-3.0,0.0,1.0,-29.0,12.0,7.0,-2.0,1.0,0.0,8.0,-2.0,25.0,-18.0
210,-12.0,3.0,5.0,4.0,1.0,2.0,41.0,19.0,0.0,-1.0,-5.0,-9.0,8.0,5.0,-8.0,-9.0,1.0,-3.0,-1.0,-4.0,-11.0,-7.0,-21.0,19.0,-53.0,-2.0,1.0,2.0,0.0,-14.0,-46.0,-28.0,71.0,1.0,-3.0,-18.0,-1.0,14.0,63.0,18.0,-10.0,1.0,3.0,14.0,-3.0,-6.0,-18.0,0.0,6.0,-5.0,-6.0,-8.0,17.0,9.0,-9.0,-10.0,-17.0,-3.0,-1.0,9.0,-2.0,0.0,-4.0,-18.0
211,-13.0,-2.0,1.0,-3.0,-11.0,-2.0,-58.0,-2.0,8.0,0.0,1.0,-7.0,8.0,-6.0,30.0,-4.0,-11.0,0.0,2.0,8.0,-2.0,12.0,19.0,0.0,9.0,-2.0,-3.0,-5.0,-8.0,5.0,27.0,16.0,-18.0,-3.0,-3.0,-2.0,0.0,-3.0,-32.0,-10.0,5.0,-3.0,-2.0,0.0,-2.0,-2.0,-28.0,-18.0,-16.0,2.0,0.0,2.0,-4.0,0.0,-1.0,-5.0,14.0,-2.0,-4.0,-14.0,2.0,-11.0,10.0,2.0
212,-13.0,0.0,-1.0,0.0,-3.0,2.0,18.0,14.0,13.0,1.0,3.0,5.0,12.0,11.0,-4.0,17.0,-12.0,2.0,3.0,9.0,-14.0,-17.0,-39.0,-19.0,-16.0,-4.0,0.0,-8.0,3.0,-2.0,10.0,-1.0,11.0,2.0,-2.0,-12.0,-9.0,8.0,56.0,27.0,29.0,0.0,2.0,8.0,15.0,0.0,28.0,1.0,24.0,-6.0,-8.0,-9.0,-7.0,12.0,-7.0,-9.0,12.0,2.0,0.0,5.0,5.0,2.0,11.0,14.0
213,-23.0,-1.0,1.0,7.0,-5.0,-14.0,-66.0,-22.0,-8.0,5.0,8.0,14.0,-6.0,-9.0,-20.0,1.0,-20.0,-5.0,-5.0,-4.0,31.0,-4.0,-1.0,-6.0,19.0,3.0,-3.0,-1.0,-13.0,17.0,50.0,12.0,-24.0,-4.0,-4.0,1.0,6.0,-3.0,10.0,-10.0,19.0,-3.0,-3.0,-3.0,-5.0,7.0,5.0,16.0,-13.0,3.0,6.0,6.0,-10.0,-5.0,-23.0,-13.0,-1.0,1.0,1.0,1.0,11.0,-4.0,-9.0,18.0
214,4.0,-7.0,-3.0,-4.0,-7.0,-9.0,-96.0,-33.0,-19.0,1.0,0.0,0.0,8.0,24.0,101.0,10.0,-3.0,-2.0,-2.0,-14.0,-12.0,6.0,-18.0,0.0,15.0,1.0,2.0,6.0,2.0,2.0,14.0,-13.0,-39.0,-1.0,2.0,9.0,9.0,-11.0,-20.0,3.0,40.0,-4.0,-6.0,-10.0,-11.0,3.0,-31.0,1.0,-8.0,1.0,0.0,6.0,0.0,-5.0,20.0,3.0,0.0,-2.0,-2.0,-13.0,-14.0,-6.0,-81.0,-40.0
215,13.0,7.0,6.0,3.0,3.0,-6.0,67.0,80.0,-62.0,-6.0,-5.0,-9.0,9.0,11.0,-23.0,-10.0,80.0,6.0,-2.0,-1.0,2.0,-4.0,32.0,11.0,-5.0,-4.0,-6.0,-11.0,-8.0,3.0,-44.0,-8.0,-2.0,0.0,-2.0,1.0,-1.0,-11.0,7.0,-20.0,1.0,1.0,2.0,1.0,12.0,0.0,-90.0,-7.0,-40.0,1.0,2.0,8.0,-6.0,-10.0,106.0,9.0,27.0,-3.0,-3.0,-9.0,-6.0,12.0,0.0,11.0
216,14.0,-1.0,-1.0,1.0,6.0,4.0,8.0,-18.0,-5.0,-2.0,0.0,3.0,-1.0,9.0,13.0,7.0,-25.0,-1.0,1.0,0.0,-5.0,-11.0,-63.0,-25.0,1.0,1.0,3.0,16.0,16.0,-6.0,-9.0,4.0,-23.0,-2.0,-3.0,-15.0,-12.0,-13.0,-57.0,-8.0,25.0,-7.0,-8.0,-9.0,-11.0,1.0,55.0,-23.0,5.0,3.0,2.0,0.0,1.0,17.0,25.0,35.0,-5.0,-3.0,-2.0,1.0,3.0,0.0,43.0,11.0
217,11.0,4.0,5.0,12.0,3.0,3.0,-26.0,-5.0,-55.0,2.0,-1.0,-4.0,0.0,-10.0,-8.0,-21.0,51.0,-4.0,-5.0,-14.0,4.0,-6.0,-21.0,3.0,-5.0,6.0,0.0,0.0,-23.0,12.0,64.0,13.0,5.0,-3.0,-2.0,3.0,14.0,-9.0,-9.0,-22.0,1.0,1.0,0.0,0.0,3.0,1.0,-40.0,18.0,-17.0,-6.0,-2.0,-4.0,-7.0,6.0,60.0,2.0,3.0,4.0,-2.0,1.0,16.0,0.0,-17.0,5.0
218,-4.0,0.0,0.0,-1.0,-10.0,-5.0,-15.0,-6.0,11.0,-1.0,1.0,-1.0,0.0,3.0,25.0,-1.0,-18.0,-1.0,-1.0,2.0,-4.0,-2.0,-61.0,-12.0,-3.0,-1.0,0.0,0.0,2.0,-21.0,-12.0,7.0,2.0,-1.0,-4.0,-9.0,-7.0,9.0,40.0,-19.0,3.0,-1.0,1.0,7.0,6.0,-2.0,2.0,2.0,-27.0,-5.0,-3.0,-5.0,3.0,-4.0,-54.0,1.0,-15.0,3.0,3.0,3.0,0.0,19.0,65.0,17.0
219,37.0,-1.0,-1.0,0.0,-3.0,1.0,2.0,1.0,5.0,1.0,1.0,3.0,1.0,-5.0,-48.0,-6.0,-4.0,-2.0,0.0,3.0,4.0,-16.0,-33.0,-12.0,-51.0,-6.0,-3.0,-11.0,1.0,9.0,22.0,-16.0,35.0,1.0,-1.0,0.0,-3.0,-1.0,19.0,6.0,2.0,-7.0,-6.0,-5.0,-1.0,8.0,-22.0,4.0,9.0,2.0,1.0,4.0,-11.0,-3.0,28.0,1.0,-21.0,-2.0,-1.0,-1.0,11.0,3.0,-40.0,-14.0
220,-26.0,-3.0,1.0,-1.0,-9.0,-12.0,-38.0,4.0,26.0,4.0,5.0,11.0,6.0,-2.0,42.0,31.0,-23.0,-1.0,-2.0,-8.0,7.0,15.0,60.0,-7.0,24.0,-5.0,-1.0,1.0,-2.0,-2.0,0.0,-6.0,-16.0,-4.0,-8.0,-16.0,-11.0,4.0,-34.0,-6.0,3.0,1.0,3.0,6.0,-2.0,-14.0,-43.0,0.0,-14.0,1.0,0.0,4.0,-5.0,3.0,60.0,-14.0,41.0,1.0,4.0,11.0,22.0,-1.0,-16.0,19.0
221,-36.0,-2.0,-2.0,1.0,-10.0,2.0,-13.0,-11.0,34.0,1.0,0.0,0.0,13.0,-7.0,-41.0,-12.0,-64.0,-5.0,-2.0,-4.0,-33.0,0.0,69.0,-1.0,92.0,7.0,-4.0,-15.0,17.0,9.0,-24.0,-14.0,-17.0,0.0,7.0,17.0,5.0,2.0,22.0,7.0,-16.0,-4.0,-6.0,-22.0,3.0,0.0,-38.0,-27.0,-4.0,-1.0,-1.0,5.0,-3.0,16.0,31.0,49.0,-14.0,1.0,2.0,7.0,-2.0,-12.0,-32.0,4.0
222,2.0,-4.0,-6.0,-12.0,-4.0,0.0,22.0,7.0,-12.0,7.0,7.0,19.0,-11.0,13.0,49.0,9.0,37.0,-5.0,-5.0,-14.0,26.0,-20.0,-68.0,-31.0,-17.0,-1.0,-1.0,-5.0,-22.0,6.0,12.0,1.0,12.0,-1.0,0.0,-2.0,3.0,-6.0,-51.0,1.0,-17.0,-1.0,-5.0,4.0,3.0,4.0,65.0,-10.0,12.0,5.0,2.0,1.0,0.0,12.0,14.0,17.0,-84.0,-8.0,-3.0,1.0,2.0,-8.0,-30.0,-7.0
223,69.0,7.0,2.0,6.0,-4.0,-16.0,-39.0,-33.0,-19.0,-2.0,-5.0,-19.0,12.0,10.0,58.0,30.0,3.0,1.0,-2.0,-13.0,-3.0,16.0,-18.0,0.0,-10.0,3.0,3.0,7.0,-4.0,2.0,-6.0,0.0,-24.0,-5.0,-1.0,3.0,5.0,-12.0,-41.0,-16.0,0.0,-4.0,0.0,1.0,-2.0,5.0,38.0,26.0,4.0,0.0,2.0,5.0,3.0,-2.0,22.0,-5.0,10.0,-3.0,-1.0,-3.0,5.0,-1.0,-1.0,2.0
224,-13.0,-2.0,-8.0,-12.0,1.0,10.0,25.0,3.0,18.0,2.0,0.0,3.0,0.0,10.0,-34.0,-10.0,-14.0,-1.0,1.0,1.0,-2.0,-12.0,-36.0,-6.0,13.0,0.0,-1.0,2.0,3.0,-2.0,-1.0,-1.0,-1.0,-3.0,-1.0,0.0,-7.0,1.0,34.0,6.0,-13.0,0.0,-2.0,6.0,24.0,14.0,3.0,-7.0,-27.0,-6.0,-3.0,-5.0,-18.0,4.0,86.0,4.0,55.0,3.0,-2.0,-20.0,22.0,8.0,-9.0,11.0
225,-25.0,0.0,1.0,9.0,-6.0,0.0,-27.0,-43.0,38.0,-4.0,-3.0,-4.0,-6.0,6.0,55.0,38.0,-26.0,0.0,3.0,4.0,5.0,1.0,-60.0,-13.0,-26.0,-3.0,3.0,9.0,3.0,-12.0,-2.0,-12.0,17.0,1.0,-5.0,-15.0,4.0,7.0,43.0,10.0,-16.0,0.0,-3.0,0.0,0.0,1.0,15.0,-18.0,-3.0,2.0,1.0,-2.0,-2.0,-3.0,-26.0,12.0,23.0,-3.0,-4.0,-3.0,-4.0,-1.0,41.0,12.0
226,-6.0,0.0,1.0,1.0,-3.0,-1.0,-45.0,-3.0,-9.0,-1.0,2.0,11.0,-3.0,-5.0,-41.0,-20.0,18.0,2.0,2.0,-5.0,9.0,-3.0,70.0,3.0,-20.0,-2.0,0.0,-4.0,-19.0,4.0,-77.0,6.0,5.0,-3.0,-5.0,-1.0,-17.0,-20.0,41.0,16.0,1.0,-2.0,0.0,-4.0,26.0,14.0,20.0,-16.0,-34.0,-1.0,-2.0,4.0,3.0,12.0,-51.0,-5.0,62.0,5.0,2.0,5.0,2.0,7.0,37.0,16.0
227,-7.0,-4.0,0.0,5.0,-4.0,-8.0,-55.0,-11.0,3.0,2.0,2.0,-2.0,4.0,-4.0,42.0,-3.0,-13.0,-7.0,-2.0,-13.0,-21.0,-13.0,-31.0,9.0,-15.0,2.0,3.0,7.0,21.0,23.0,37.0,-10.0,1.0,-1.0,0.0,2.0,1.0,-7.0,-61.0,-7.0,0.0,2.0,5.0,10.0,-12.0,-17.0,36.0,8.0,4.0,0.0,0.0,-6.0,15.0,16.0,29.0,10.0,-18.0,-6.0,-3.0,7.0,-8.0,-8.0,-58.0,-13.0
228,13.0,-4.0,-2.0,-11.0,-10.0,0.0,6.0,0.0,-14.0,-2.0,-5.0,2.0,7.0,10.0,16.0,-6.0,7.0,2.0,-2.0,4.0,-7.0,-8.0,-28.0,3.0,1.0,2.0,0.0,1.0,-6.0,6.0,40.0,-13.0,6.0,2.0,2.0,13.0,19.0,6.0,-15.0,1.0,-67.0,-5.0,-5.0,-18.0,-16.0,-15.0,-104.0,-20.0,97.0,-1.0,2.0,12.0,16.0,-14.0,107.0,31.0,-21.0,-2.0,-7.0,-24.0,-6.0,22.0,-19.0,-15.0
229,-13.0,0.0,1.0,1.0,-4.0,5.0,19.0,-5.0,15.0,-1.0,-1.0,-2.0,-5.0,6.0,33.0,8.0,-13.0,-1.0,0.0,9.0,8.0,-16.0,-74.0,-6.0,-43.0,-3.0,2.0,2.0,-3.0,-10.0,-8.0,-3.0,29.0,2.0,-1.0,-4.0,12.0,7.0,1.0,14.0,9.0,1.0,-1.0,0.0,-1.0,7.0,-1.0,4.0,-10.0,-1.0,-3.0,-15.0,-14.0,-3.0,-4.0,-33.0,0.0,0.0,2.0,5.0,12.0,-4.0,15.0,23.0
230,-10.0,-3.0,-4.0,-3.0,-9.0,0.0,-47.0,-17.0,15.0,1.0,-1.0,6.0,-8.0,-7.0,20.0,24.0,-12.0,-3.0,-3.0,-9.0,22.0,7.0,7.0,-5.0,-8.0,2.0,-2.0,-10.0,-13.0,1.0,-50.0,10.0,13.0,2.0,2.0,6.0,3.0,-1.0,93.0,27.0,9.0,-3.0,-1.0,0.0,5.0,5.0,-26.0,-16.0,-3.0,3.0,0.0,6.0,-17.0,6.0,18.0,8.0,-5.0,0.0,-3.0,4.0,24.0,2.0,-65.0,-9.0
231,-7.0,1.0,2.0,2.0,-18.0,-20.0,26.0,11.0,5.0,0.0,-3.0,0.0,15.0,-1.0,-64.0,-15.0,-46.0,1.0,0.0,3.0,4.0,16.0,101.0,18.0,79.0,1.0,0.0,1.0,6.0,13.0,-26.0,-17.0,-8.0,-2.0,-1.0,0.0,-7.0,-15.0,2.0,-5.0,13.0,4.0,7.0,5.0,9.0,9.0,76.0,24.0,-16.0,-1.0,0.0,13.0,-5.0,-20.0,-88.0,-24.0,-20.0,-5.0,-8.0,-26.0,10.0,10.0,36.0,-20.0
232,-8.0,-3.0,-4.0,-5.0,-8.0,0.0,-51.0,-12.0,-8.0,2.0,-2.0,-4.0,0.0,6.0,46.0,25.0,32.0,1.0,2.0,9.0,19.0,6.0,-20.0,14.0,-12.0,-1.0,3.0,4.0,-2.0,-12.0,-12.0,-11.0,6.0,-1.0,0.0,-3.0,-5.0,21.0,26.0,3.0,-15.0,-2.0,-4.0,-8.0,-1.0,-3.0,4.0,-24.0,0.0,-2.0,-4.0,-6.0,-6.0,0.0,16.0,16.0,-37.0,0.0,3.0,8.0,0.0,1.0,-16.0,1.0
233,50.0,-1.0,-2.0,-1.0,22.0,-3.0,-14.0,-5.0,-25.0,-4.0,-4.0,-5.0,-14.0,6.0,-15.0,-9.0,26.0,8.0,7.0,3.0,1.0,5.0,21.0,12.0,30.0,0.0,-1.0,8.0,4.0,6.0,18.0,18.0,-46.0,0.0,2.0,1.0,5.0,-11.0,-63.0,-45.0,26.0,-3.0,-6.0,-10.0,5.0,10.0,51.0,5.0,5.0,0.0,0.0,4.0,-5.0,-4.0,9.0,-5.0,-29.0,-2.0,1.0,-1.0,7.0,9.0,20.0,10.0
234,-10.0,-4.0,-6.0,10.0,5.0,3.0,41.0,-17.0,9.0,3.0,2.0,0.0,-7.0,-4.0,-46.0,22.0,-13.0,-5.0,-5.0,-9.0,-7.0,-7.0,10.0,0.0,-31.0,2.0,10.0,18.0,0.0,-1.0,13.0,5.0,32.0,-6.0,-5.0,-14.0,10.0,7.0,-5.0,2.0,-5.0,-4.0,-4.0,-5.0,-13.0,-12.0,-62.0,-25.0,-27.0,-1.0,-2.0,0.0,-4.0,10.0,-6.0,-6.0,26.0,0.0,-2.0,0.0,1.0,-7.0,33.0,26.0
235,-8.0,2.0,4.0,9.0,-5.0,-3.0,-6.0,5.0,8.0,0.0,-1.0,-18.0,10.0,-2.0,5.0,1.0,-15.0,-1.0,0.0,-5.0,1.0,14.0,-49.0,-10.0,7.0,0.0,0.0,-2.0,-7.0,2.0,77.0,-4.0,-15.0,-5.0,-3.0,-1.0,-8.0,0.0,-39.0,-11.0,13.0,-4.0,-6.0,4.0,10.0,-6.0,-46.0,-4.0,-1.0,-1.0,1.0,-5.0,0.0,-5.0,43.0,-6.0,4.0,-3.0,-4.0,-3.0,8.0,7.0,-5.0,-3.0
236,6.0,4.0,5.0,4.0,-11.0,-2.0,11.0,11.0,-19.0,-3.0,-3.0,1.0,3.0,-5.0,19.0,-7.0,15.0,1.0,-2.0,-4.0,-3.0,-6.0,-28.0,9.0,-25.0,-5.0,-6.0,-7.0,-7.0,6.0,-32.0,-14.0,16.0,3.0,4.0,5.0,2.0,-1.0,31.0,11.0,6.0,1.0,3.0,8.0,1.0,-4.0,-32.0,-3.0,1.0,1.0,-1.0,-12.0,-1.0,4.0,-7.0,-14.0,-67.0,-3.0,-4.0,-2.0,-5.0,7.0,14.0,22.0
237,80.0,6.0,0.0,3.0,2.0,2.0,6.0,21.0,-1.0,-2.0,1.0,-2.0,7.0,-1.0,40.0,-5.0,7.0,0.0,1.0,9.0,8.0,2.0,-14.0,-12.0,-7.0,0.0,1.0,3.0,0.0,3.0,-63.0,-13.0,-33.0,-6.0,-4.0,-13.0,0.0,-7.0,41.0,13.0,10.0,1.0,2.0,15.0,-11.0,6.0,10.0,7.0,2.0,0.0,-1.0,-3.0,10.0,-4.0,-9.0,-25.0,-8.0,-3.0,-1.0,-1.0,1.0,-2.0,-42.0,-1.0
238,2.0,-3.0,-2.0,8.0,4.0,13.0,65.0,16.0,10.0,3.0,-1.0,-11.0,-3.0,15.0,8.0,-17.0,-24.0,-4.0,-5.0,0.0,-8.0,-3.0,-32.0,6.0,34.0,-1.0,-1.0,-7.0,2.0,-6.0,-43.0,-2.0,-20.0,0.0,4.0,5.0,-1.0,-11.0,-10.0,-1.0,-10.0,0.0,3.0,-2.0,-3.0,-6.0,23.0,2.0,-31.0,-4.0,-6.0,-13.0,5.0,-2.0,-29.0,15.0,69.0,6.0,3.0,11.0,7.0,7.0,56.0,-4.0
239,-23.0,-3.0,-7.0,-13.0,8.0,6.0,-37.0,-9.0,5.0,1.0,-1.0,2.0,-3.0,-2.0,4.0,7.0,-7.0,-6.0,-1.0,4.0,-5.0,-8.0,-34.0,9.0,3.0,-2.0,0.0,-1.0,-4.0,-11.0,-25.0,-21.0,-18.0,-3.0,-1.0,2.0,24.0,12.0,59.0,6.0,-12.0,0.0,5.0,0.0,1.0,23.0,-35.0,-20.0,18.0,0.0,2.0,7.0,11.0,0.0,30.0,16.0,-14.0,-4.0,-4.0,-11.0,-19.0,-1.0,-1.0,18.0
240,-14.0,1.0,-2.0,-2.0,-1.0,-5.0,-55.0,-23.0,18.0,-3.0,-3.0,-7.0,2.0,-9.0,3.0,23.0,5.0,5.0,0.0,1.0,5.0,19.0,68.0,0.0,-17.0,2.0,3.0,4.0,13.0,8.0,22.0,17.0,23.0,-2.0,-4.0,-3.0,-7.0,-10.0,-48.0,-5.0,-13.0,1.0,2.0,8.0,5.0,-12.0,5.0,7.0,9.0,-1.0,2.0,-5.0,-2.0,-2.0,-15.0,-8.0,-48.0,-4.0,-3.0,-6.0,0.0,9.0,-2.0,-13.0
241,60.0,3.0,0.0,-7.0,-6.0,-10.0,-6.0,7.0,-11.0,-4.0,0.0,1.0,-8.0,-4.0,-4.0,-6.0,-9.0,-2.0,-4.0,0.0,12.0,2.0,-7.0,-4.0,52.0,4.0,0.0,3.0,5.0,4.0,15.0,4.0,-46.0,-7.0,-1.0,6.0,-10.0,8.0,-14.0,-3.0,-29.0,1.0,-1.0,2.0,6.0,-2.0,-6.0,-5.0,20.0,3.0,-4.0,-25.0,4.0,-5.0,10.0,-12.0,17.0,-3.0,1.0,2.0,-2.0,20.0,18.0,10.0
242,-25.0,-3.0,-2.0,-2.0,-3.0,2.0,1.0,11.0,-13.0,-4.0,0.0,8.0,-7.0,-15.0,-40.0,-7.0,19.0,3.0,2.0,-4.0,0.0,-4.0,18.0,15.0,2.0,2.0,-1.0,-2.0,17.0,19.0,36.0,8.0,-18.0,1.0,0.0,-9.0,-10.0,-6.0,-30.0,-31.0,23.0,2.0,1.0,2.0,6.0,7.0,30.0,26.0,-5.0,-4.0,-1.0,11.0,-5.0,2.0,-8.0,-1.0,13.0,1.0,0.0,-11.0,0.0,-6.0,6.0,-5.0
243,-31.0,-1.0,0.0,2.0,-9.0,7.0,-23.0,-6.0,-18.0,0.0,4.0,11.0,1.0,-10.0,-26.0,3.0,32.0,-3.0,-4.0,-22.0,-8.0,3.0,15.0,11.0,-22.0,-5.0,-6.0,1.0,12.0,15.0,1.0,-10.0,30.0,1.0,1.0,1.0,-3.0,-1.0,23.0,3.0,3.0,2.0,-5.0,-9.0,-8.0,0.0,-23.0,-13.0,11.0,2.0,7.0,20.0,-12.0,-12.0,-6.0,-1.0,-47.0,-6.0,-7.0,-10.0,31.0,-2.0,-8.0,-6.0
244,2.0,-2.0,-2.0,-7.0,-16.0,-1.0,-5.0,-15.0,8.0,-1.0,-1.0,-6.0,2.0,15.0,81.0,25.0,5.0,3.0,3.0,9.0,2.0,-3.0,-26.0,-14.0,-25.0,0.0,1.0,9.0,6.0,1.0,-26.0,7.0,23.0,1.0,0.0,-16.0,-8.0,-12.0,-8.0,6.0,11.0,-1.0,-4.0,-3.0,0.0,-1.0,20.0,-31.0,-39.0,-4.0,-3.0,-4.0,2.0,5.0,-33.0,5.0,22.0,-1.0,0.0,6.0,0.0,0.0,18.0,9.0
245,-5.0,0.0,0.0,4.0,5.0,4.0,7.0,19.0,0.0,3.0,5.0,7.0,0.0,-2.0,1.0,-18.0,-51.0,-5.0,-1.0,-6.0,11.0,5.0,-8.0,-26.0,100.0,0.0,1.0,6.0,-10.0,-7.0,1.0,-4.0,-14.0,1.0,-2.0,-2.0,-8.0,7.0,1.0,4.0,0.0,0.0,0.0,0.0,9.0,-2.0,2.0,9.0,-22.0,-1.0,-2.0,-5.0,-4.0,0.0,-39.0,-2.0,7.0,1.0,-1.0,2.0,-8.0,-5.0,19.0,-5.0
246,-17.0,-2.0,2.0,24.0,11.0,-2.0,50.0,7.0,11.0,-2.0,-11.0,-45.0,-8.0,7.0,-16.0,1.0,12.0,3.0,2.0,10.0,6.0,8.0,9.0,-3.0,-68.0,-2.0,3.0,3.0,2.0,3.0,-50.0,-21.0,36.0,-1.0,-2.0,0.0,-1.0,-7.0,30.0,11.0,10.0,3.0,2.0,12.0,7.0,-2.0,13.0,14.0,7.0,1.0,0.0,5.0,5.0,5.0,10.0,5.0,-7.0,-1.0,-1.0,-12.0,-5.0,-5.0,-19.0,-17.0
247,-28.0,-1.0,3.0,7.0,12.0,1.0,-34.0,-21.0,-7.0,-4.0,-2.0,-4.0,-6.0,-2.0,-3.0,21.0,0.0,0.0,-4.0,0.0,5.0,-7.0,1.0,-3.0,38.0,4.0,0.0,7.0,14.0,11.0,32.0,10.0,-15.0,-3.0,-7.0,-21.0,-11.0,2.0,-31.0,-12.0,3.0,-3.0,2.0,8.0,-8.0,-6.0,4.0,-10.0,3.0,-3.0,-2.0,-2.0,7.0,4.0,8.0,4.0,-10.0,1.0,4.0,1.0,-12.0,-8.0,-35.0,-22.0
248,-42.0,-3.0,-2.0,5.0,23.0,8.0,54.0,18.0,57.0,-1.0,-4.0,-4.0,1.0,4.0,-14.0,-16.0,-17.0,1.0,3.0,5.0,-1.0,2.0,42.0,17.0,20.0,-7.0,-4.0,4.0,6.0,2.0,-31.0,-2.0,-7.0,2.0,1.0,-8.0,11.0,-1.0,-24.0,-12.0,-19.0,-2.0,-3.0,1.0,-12.0,-5.0,-9.0,-13.0,-3.0,0.0,0.0,-7.0,-11.0,2.0,-15.0,-11.0,-20.0,0.0,-6.0,-5.0,6.0,10.0,20.0,7.0
249,23.0,1.0,1.0,5.0,-5.0,-10.0,5.0,13.0,-21.0,-2.0,2.0,3.0,31.0,1.0,-9.0,-26.0,20.0,-5.0,-9.0,-19.0,-19.0,6.0,-50.0,-11.0,-11.0,0.0,-1.0,-7.0,-9.0,8.0,52.0,-5.0,-5.0,-4.0,0.0,-1.0,3.0,-6.0,-41.0,-3.0,-2.0,0.0,4.0,8.0,5.0,5.0,33.0,10.0,11.0,-1.0,-2.0,-3.0,3.0,7.0,-7.0,0.0,-13.0,-3.0,-1.0,0.0,-4.0,-15.0,8.0,3.0
250,-3.0,1.0,-1.0,1.0,-9.0,2.0,-5.0,-1.0,-45.0,-4.0,-2.0,6.0,1.0,-16.0,-67.0,-9.0,40.0,-8.0,-12.0,-12.0,1.0,-9.0,12.0,-17.0,-19.0,3.0,3.0,3.0,-2.0,30.0,62.0,13.0,61.0,-2.0,-1.0,-3.0,15.0,3.0,-22.0,-8.0,-34.0,-3.0,-3.0,-4.0,-4.0,4.0,23.0,15.0,-7.0,1.0,4.0,5.0,-5.0,-2.0,-18.0,-15.0,8.0,0.0,-1.0,10.0,9.0,-11.0,-44.0,-1.0
251,-21.0,-2.0,-4.0,-9.0,-7.0,-2.0,36.0,-3.0,12.0,2.0,-3.0,-16.0,-22.0,-12.0,-32.0,-4.0,-28.0,-8.0,-6.0,-8.0,-1.0,-5.0,-75.0,-44.0,5.0,2.0,4.0,2.0,-2.0,-3.0,77.0,55.0,4.0,2.0,1.0,12.0,20.0,27.0,35.0,18.0,79.0,2.0,-2.0,-11.0,-11.0,1.0,17.0,-5.0,-7.0,0.0,3.0,12.0,14.0,10.0,-2.0,7.0,-17.0,-3.0,2.0,0.0,3.0,-1.0,-30.0,19.0
252,-16.0,-1.0,0.0,6.0,-7.0,-13.0,-35.0,-15.0,-8.0,0.0,-2.0,-8.0,11.0,-5.0,24.0,12.0,7.0,1.0,1.0,8.0,7.0,12.0,11.0,5.0,7.0,-1.0,-2.0,-7.0,-4.0,4.0,-24.0,-14.0,6.0,4.0,3.0,2.0,11.0,1.0,65.0,12.0,2.0,0.0,0.0,3.0,10.0,9.0,11.0,-14.0,-4.0,0.0,1.0,-1.0,0.0,-2.0,1.0,3.0,-41.0,-1.0,2.0,-3.0,-12.0,5.0,7.0,4.0
253,38.0,-4.0,-4.0,1.0,2.0,-1.0,-51.0,-18.0,0.0,1.0,-1.0,1.0,-1.0,-7.0,18.0,8.0,-37.0,-2.0,1.0,-9.0,-7.0,-5.0,-15.0,-26.0,52.0,0.0,-1.0,8.0,-2.0,0.0,32.0,6.0,-19.0,1.0,4.0,6.0,20.0,10.0,5.0,19.0,11.0,2.0,-6.0,-22.0,-20.0,4.0,13.0,3.0,-14.0,-3.0,-3.0,0.0,-1.0,-4.0,-23.0,-9.0,-15.0,-3.0,1.0,8.0,-5.0,-10.0,-17.0,-7.0
254,-2.0,4.0,1.0,-3.0,-9.0,4.0,52.0,6.0,-21.0,-2.0,-1.0,5.0,21.0,1.0,-31.0,-10.0,-3.0,-3.0,-4.0,-7.0,-16.0,-3.0,-33.0,2.0,48.0,4.0,2.0,3.0,9.0,-7.0,28.0,0.0,-2.0,-1.0,3.0,10.0,0.0,11.0,13.0,15.0,-11.0,1.0,3.0,6.0,15.0,13.0,54.0,-4.0,-20.0,-3.0,-2.0,-16.0,-35.0,-7.0,-36.0,-4.0,44.0,-1.0,-4.0,-6.0,4.0,11.0,44.0,13.0
255,-15.0,1.0,3.0,4.0,5.0,-3.0,-26.0,-9.0,9.0,-3.0,-3.0,-4.0,2.0,-7.0,-53.0,-16.0,-5.0,3.0,3.0,11.0,-12.0,-2.0,24.0,-4.0,-35.0,0.0,2.0,-1.0,12.0,-4.0,-8.0,17.0,-14.0,-4.0,-4.0,-10.0,-4.0,-11.0,-88.0,7.0,26.0,1.0,2.0,7.0,0.0,9.0,66.0,-5.0,26.0,2.0,-1.0,1.0,15.0,15.0,18.0,13.0,-33.0,-4.0,2.0,6.0,-10.0,2.0,-34.0,-28.0
256,-48.0,2.0,3.0,10.0,29.0,5.0,-5.0,15.0,59.0,-4.0,-7.0,-22.0,-24.0,-10.0,-9.0,3.0,21.0,0.0,-4.0,-6.0,-1.0,-5.0,11.0,9.0,-12.0,-6.0,-6.0,-6.0,7.0,12.0,-4.0,-24.0,-8.0,0.0,3.0,-3.0,-19.0,4.0,40.0,16.0,-16.0,-2.0,-2.0,1.0,-5.0,-8.0,-51.0,-25.0,-1.0,-1.0,-5.0,0.0,4.0,-10.0,-42.0,11.0,23.0,7.0,6.0,1.0,-12.0,-20.0,-71.0,-8.0
257,20.0,-1.0,-1.0,5.0,13.0,16.0,105.0,-10.0,-30.0,-2.0,-1.0,3.0,-2.0,4.0,-9.0,-5.0,16.0,4.0,6.0,6.0,17.0,5.0,90.0,64.0,-66.0,-5.0,-7.0,-15.0,-8.0,4.0,-40.0,-35.0,58.0,3.0,-3.0,-6.0,1.0,6.0,-5.0,17.0,-10.0,4.0,5.0,9.0,-2.0,-9.0,-34.0,-1.0,2.0,-7.0,-10.0,-14.0,-8.0,-1.0,-72.0,-44.0,-9.0,9.0,5.0,6.0,11.0,-9.0,106.0,20.0
258,19.0,-6.0,-3.0,2.0,5.0,3.0,-26.0,13.0,-18.0,-2.0,-2.0,-9.0,-13.0,11.0,21.0,-13.0,-45.0,-5.0,-3.0,-9.0,5.0,1.0,-46.0,8.0,71.0,0.0,-2.0,4.0,-4.0,-15.0,-3.0,14.0,-12.0,5.0,5.0,-6.0,3.0,0.0,-38.0,-28.0,-9.0,-4.0,1.0,3.0,6.0,-1.0,21.0,12.0,-61.0,8.0,10.0,13.0,13.0,2.0,-6.0,-20.0,54.0,-14.0,-17.0,-38.0,-40.0,-10.0,-56.0,-2.0
259,-40.0,1.0,-5.0,-1.0,18.0,26.0,88.0,32.0,108.0,12.0,8.0,12.0,27.0,31.0,49.0,46.0,14.0,6.0,5.0,8.0,1.0,11.0,-49.0,-17.0,-56.0,1.0,4.0,14.0,5.0,-18.0,-39.0,7.0,-72.0,-4.0,-6.0,-15.0,1.0,-22.0,-128.0,-68.0,59.0,-9.0,-7.0,-1.0,1.0,1.0,71.0,37.0,-5.0,-1.0,-1.0,4.0,3.0,25.0,120.0,23.0,5.0,0.0,-1.0,4.0,2.0,-10.0,-9.0,-19.0
260,-31.0,-2.0,2.0,4.0,-19.0,-16.0,-53.0,-18.0,-12.0,2.0,2.0,-4.0,7.0,-7.0,-6.0,-18.0,35.0,0.0,-1.0,-8.0,-9.0,-12.0,-60.0,-17.0,-16.0,1.0,2.0,3.0,27.0,40.0,127.0,59.0,30.0,2.0,-3.0,-2.0,-5.0,3.0,-50.0,-9.0,-61.0,-1.0,4.0,12.0,-10.0,-8.0,-16.0,-9.0,-29.0,-5.0,-5.0,-5.0,-5.0,-29.0,-113.0,-48.0,70.0,-4.0,-9.0,1.0,-12.0,-24.0,-95.0,-2.0
261,-9.0,-3.0,0.0,-4.0,18.0,26.0,121.0,42.0,-11.0,5.0,1.0,6.0,-5.0,30.0,-77.0,28.0,-15.0,-1.0,1.0,7.0,5.0,-7.0,-61.0,-25.0,-40.0,-10.0,1.0,21.0,-6.0,-21.0,-107.0,-58.0,55.0,3.0,-2.0,-30.0,4.0,15.0,75.0,73.0,-69.0,-3.0,-4.0,-6.0,-18.0,-25.0,-102.0,7.0,78.0,2.0,5.0,2.0,23.0,30.0,119.0,-8.0,-33.0,-5.0,-5.0,2.0,-14.0,-5.0,-83.0,17.0
262,11.0,3.0,2.0,10.0,9.0,-16.0,23.0,-10.0,31.0,-1.0,2.0,4.0,-23.0,-57.0,-128.0,-102.0,-56.0,-5.0,-4.0,-12.0,40.0,15.0,104.0,91.0,8.0,10.0,17.0,14.0,5.0,54.0,127.0,-19.0,20.0,-11.0,-13.0,-3.0,11.0,16.0,-86.0,22.0,-30.0,-1.0,-3.0,-2.0,-4.0,8.0,-42.0,-34.0,-12.0,0.0,1.0,15.0,0.0,-10.0,-55.0,-32.0,12.0,-7.0,-4.0,2.0,-10.0,-68.0,-63.0,-83.0
263,11.0,14.0,11.0,6.0,14.0,86.0,127.0,102.0,-31.0,-6.0,-6.0,-10.0,31.0,-8.0,-128.0,-82.0,49.0,-6.0,-10.0,-3.0,-37.0,-21.0,-96.0,-66.0,-9.0,13.0,3.0,-18.0,8.0,53.0,118.0,121.0,-37.0,-7.0,-2.0,8.0,6.0,-24.0,-128.0,-82.0,9.0,-5.0,0.0,15.0,-24.0,-68.0,-57.0,-39.0,14.0,2.0,0.0,-18.0,27.0,64.0,92.0,70.0,-9.0,4.0,4.0,12.0,-4.0,-6.0,-20.0,-39.0
264,-20.0,-6.0,4.0,12.0,-3.0,-34.0,-105.0,-28.0,24.0,7.0,0.0,-3.0,27.0,81.0,127.0,125.0,-41.0,-8.0,-2.0,0.0,-35.0,-46.0,-77.0,-24.0,1.0,3.0,2.0,10.0,-22.0,-10.0,-103.0,1.0,45.0,-5.0,-2.0,-2.0,20.0,-27.0,-85.0,-53.0,-13.0,-12.0,-14.0,-32.0,-7.0,-14.0,92.0,23.0,1.0,0.0,3.0,-2.0,-15.0,-15.0,-82.0,1.0,3.0,2.0,-5.0,0.0,21.0,54.0,74.0,13.0
265,-17.0,5.0,7.0,14.0,-13.0,-11.0,-21.0,48.0,0.0,2.0,-2.0,-1.0,13.0,-8.0,-92.0,-65.0,29.0,-7.0,-9.0,-19.0,-37.0,-84.0,-66.0,-29.0,-30.0,3.0,5.0,-6.0,28.0,39.0,76.0,68.0,54.0,1.0,1.0,-1.0,17.0,41.0,-2.0,-31.0,-8.0,12.0,16.0,15.0,14.0,45.0,68.0,52.0,-58.0,-13.0,-5.0,17.0,-16.0,-18.0,-85.0,-34.0,51.0,-3.0,-14.0,-40.0,8.0,-34.0,-128.0,-43.0
266,9.0,4.0,3.0,-8.0,-15.0,36.0,127.0,79.0,-20.0,-11.0,-8.0,-2.0,-27.0,-46.0,-128.0,-43.0,28.0,4.0,3.0,17.0,10.0,21.0,118.0,66.0,-51.0,-3.0,-3.0,-15.0,-25.0,-32.0,-13.0,-70.0,18.0,1.0,-2.0,0.0,56.0,85.0,62.0,52.0,32.0,6.0,0.0,5.0,-26.0,2.0,-118.0,42.0,-59.0,-6.0,3.0,-2.0,25.0,-22.0,-39.0,-15.0,-25.0,-3.0,-4.0,8.0,-26.0,-35.0,-23.0,-36.0
267,-31.0,-11.0,-16.0,-33.0,-35.0,-56.0,-128.0,-98.0,-17.0,0.0,1.0,7.0,1.0,21.0,127.0,50.0,13.0,-2.0,-3.0,0.0,5.0,-22.0,-78.0,-66.0,25.0,5.0,7.0,18.0,35.0,81.0,124.0,104.0,50.0,2.0,-3.0,-5.0,26.0,46.0,-58.0,-6.0,7.0,6.0,7.0,19.0,-12.0,3.0,66.0,60.0,-1.0,-7.0,-8.0,-1.0,11.0,28.0,83.0,42.0,-6.0,4.0,2.0,-17.0,15.0,10.0,-100.0,-10.0
268,-29.0,7.0,7.0,9.0,-22.0,16.0,127.0,13.0,33.0,-11.0,-4.0,4.0,18.0,-10.0,42.0,-13.0,5.0,8.0,2.0,3.0,9.0,5.0,-25.0,-37.0,-18.0,-2.0,2.0,9.0,-18.0,-6.0,-1.0,18.0,54.0,4.0,0.0,4.0,12.0,1.0,-21.0,32.0,-92.0,-3.0,-3.0,-10.0,0.0,-8.0,-48.0,-16.0,40.0,7.0,4.0,20.0,9.0,0.0,82.0,-13.0,57.0,1.0,-5.0,-28.0,-18.0,16.0,5.0,54.0
269,-20.0,-1.0,-3.0,-18.0,-11.0,-12.0,-120.0,-33.0,-8.0,-1.0,0.0,0.0,-10.0,-27.0,59.0,-15.0,-49.0,-6.0,2.0,5.0,-13.0,-17.0,61.0,32.0,24.0,5.0,2.0,-6.0,28.0,13.0,-48.0,-56.0,9.0,-3.0,-10.0,-6.0,-3.0,22.0,100.0,29.0,17.0,-1.0,-1.0,-6.0,10.0,7.0,-128.0,-7.0,-54.0,2.0,1.0,6.0,-8.0,-5.0,-6.0,8.0,54.0,5.0,11.0,21.0,-4.0,-32.0,-56.0,-35.0
270,-28.0,-8.0,-1.0,-14.0,15.0,-10.0,28.0,-32.0,16.0,3.0,-2.0,-9.0,-8.0,44.0,23.0,29.0,1.0,-5.0,3.0,11.0,-3.0,-9.0,-99.0,3.0,-17.0,0.0,-9.0,3.0,7.0,6.0,69.0,30.0,-6.0,7.0,0.0,4.0,7.0,17.0,-74.0,-30.0,1.0,0.0,0.0,-6.0,-17.0,-35.0,-26.0,24.0,37.0,2.0,-1.0,-4.0,2.0,-10.0,-4.0,-26.0,-20.0,-5.0,1.0,-4.0,-1.0,13.0,57.0,16.0
271,11.0,1.0,-2.0,7.0,13.0,10.0,97.0,39.0,-29.0,-6.0,-2.0,4.0,3.0,-2.0,-56.0,-33.0,0.0,-1.0,-3.0,-10.0,-21.0,-11.0,-33.0,-6.0,3.0,4.0,-2.0,5.0,-21.0,-38.0,-47.0,-11.0,-6.0,-9.0,-6.0,-11.0,9.0,8.0,63.0,39.0,51.0,2.0,-3.0,-15.0,-2.0,5.0,18.0,-7.0,-26.0,-4.0,-5.0,-15.0,1.0,28.0,12.0,-25.0,13.0,0.0,-5.0,8.0,11.0,0.0,-2.0,19.0
272,-29.0,2.0,5.0,10.0,-12.0,-4.0,-55.0,14.0,24.0,-1.0,-2.0,4.0,-9.0,-40.0,-31.0,-10.0,-7.0,-11.0,-4.0,-10.0,-9.0,-29.0,-76.0,-54.0,-38.0,-7.0,-3.0,-5.0,20.0,29.0,86.0,28.0,20.0,10.0,7.0,4.0,5.0,26.0,33.0,33.0,-19.0,-5.0,-5.0,-8.0,-7.0,-10.0,14.0,-14.0,6.0,10.0,12.0,25.0,21.0,30.0,30.0,-7.0,-2.0,-7.0,-7.0,-22.0,-21.0,-17.0,-65.0,-19.0
273,-30.0,2.0,0.0,3.0,-13.0,-18.0,-48.0,-18.0,23.0,-5.0,-10.0,-15.0,2.0,5.0,-86.0,-17.0,50.0,1.0,-4.0,-6.0,-7.0,19.0,111.0,81.0,-17.0,2.0,4.0,10.0,1.0,-17.0,-72.0,4.0,45.0,-1.0,0.0,2.0,-14.0,-10.0,39.0,-9.0,-38.0,-1.0,6.0,12.0,30.0,2.0,-38.0,28.0,-27.0,6.0,0.0,-6.0,-13.0,-12.0,57.0,-32.0,19.0,-5.0,-11.0,-37.0,12.0,30.0,32.0,12.0
274,-5.0,2.0,2.0,3.0,-6.0,-3.0,-81.0,-14.0,-1.0,-2.0,0.0,4.0,-17.0,-22.0,-33.0,-2.0,-89.0,-4.0,2.0,28.0,6.0,-46.0,-123.0,-38.0,79.0,0.0,-11.0,-31.0,-2.0,7.0,28.0,39.0,-14.0,0.0,-1.0,-1.0,-2.0,22.0,83.0,75.0,2.0,-3.0,-1.0,4.0,0.0,15.0,-26.0,-14.0,-15.0,3.0,1.0,-3.0,22.0,20.0,-60.0,27.0,-37.0,1.0,5.0,18.0,-20.0,-36.0,-51.0,-38.0
275,3.0,-2.0,4.0,7.0,-10.0,-20.0,-128.0,-58.0,6.0,1.0,-7.0,-15.0,29.0,11.0,109.0,17.0,9.0,-2.0,-6.0,-20.0,-8.0,14.0,90.0,13.0,-4.0,-1.0,2.0,16.0,-2.0,0.0,13.0,-5.0,18.0,-1.0,-3.0,-1.0,8.0,19.0,24.0,0.0,-38.0,2.0,5.0,16.0,-13.0,-23.0,-39.0,-19.0,48.0,1.0,1.0,4.0,17.0,-10.0,-82.0,-6.0,-101.0,-14.0,-2.0,-6.0,-8.0,-18.0,-30.0,-87.0
276,87.0,6.0,-2.0,-10.0,19.0,47.0,107.0,76.0,-16.0,-1.0,1.0,1.0,-4.0,12.0,-37.0,-19.0,12.0,-7.0,-6.0,0.0,9.0,12.0,-2.0,15.0,-56.0,7.0,10.0,29.0,-16.0,-27.0,-83.0,-16.0,19.0,-1.0,-5.0,-10.0,14.0,-29.0,23.0,-9.0,-13.0,-10.0,4.0,14.0,-19.0,-29.0,-98.0,-72.0,48.0,8.0,-2.0,-38.0,45.0,81.0,103.0,95.0,10.0,3.0,4.0,20.0,-7.0,9.0,-61.0,5.0
277,-59.0,-5.0,2.0,-1.0,-6.0,-7.0,-45.0,-27.0,39.0,11.0,2.0,6.0,-25.0,-6.0,-83.0,12.0,-49.0,-11.0,-8.0,-11.0,1.0,-35.0,72.0,-39.0,27.0,6.0,5.0,5.0,10.0,37.0,88.0,38.0,-9.0,1.0,-3.0,-3.0,9.0,2.0,-1.0,21.0,3.0,-2.0,-4.0,1.0,-3.0,-3.0,-5.0,1.0,-20.0,-1.0,4.0,7.0,-7.0,-11.0,-110.0,-22.0,20.0,-4.0,-5.0,-12.0,-3.0,-18.0,50.0,-23.0
278,8.0,4.0,2.0,6.0,9.0,15.0,55.0,16.0,-18.0,-5.0,-1.0,8.0,-10.0,-24.0,-16.0,-25.0,7.0,1.0,2.0,9.0,13.0,24.0,20.0,-4.0,-1.0,-9.0,-13.0,-34.0,-10.0,-4.0,-26.0,13.0,10.0,4.0,4.0,12.0,1.0,17.0,17.0,13.0,-12.0,-1.0,-4.0,-14.0,-8.0,1.0,12.0,0.0,2.0,2.0,6.0,17.0,14.0,-19.0,-78.0,-16.0,-58.0,0.0,0.0,2.0,-41.0,-20.0,-38.0,-1.0
279,40.0,-17.0,-11.0,-34.0,25.0,-31.0,-72.0,-88.0,51.0,18.0,4.0,0.0,7.0,57.0,127.0,100.0,-9.0,-1.0,0.0,9.0,1.0,21.0,-18.0,-22.0,-63.0,-2.0,4.0,35.0,1.0,-20.0,-55.0,21.0,64.0,3.0,-13.0,-46.0,-24.0,5.0,14.0,-55.0,-34.0,-11.0,-1.0,-1.0,2.0,-12.0,-60.0,-12.0,-16.0,-11.0,-6.0,-6.0,-9.0,4.0,-18.0,-29.0,81.0,16.0,14.0,22.0,30.0,15.0,116.0,77.0
280,-25.0,0.0,-4.0,13.0,10.0,11.0,45.0,73.0,-14.0,-5.0,-3.0,-17.0,2.0,-5.0,-69.0,-25.0,8.0,4.0,-2.0,-8.0,-21.0,2.0,-37.0,-20.0,13.0,-6.0,-2.0,2.0,4.0,-9.0,-43.0,-39.0,-67.0,5.0,11.0,19.0,-13.0,-15.0,-67.0,10.0,53.0,3.0,-2.0,-7.0,20.0,8.0,102.0,18.0,-33.0,1.0,9.0,11.0,10.0,-12.0,-71.0,-13.0,50.0,-6.0,-7.0,-20.0,-26.0,-26.0,47.0,-58.0
281,-23.0,1.0,2.0,-3.0,31.0,31.0,-74.0,14.0,-81.0,1.0,-3.0,-11.0,-35.0,5.0,96.0,-4.0,96.0,1.0,-3.0,-8.0,10.0,9.0,-15.0,43.0,-14.0,8.0,13.0,23.0,18.0,4.0,-128.0,-10.0,6.0,-17.0,-5.0,-16.0,-55.0,-49.0,36.0,-52.0,37.0,14.0,9.0,22.0,85.0,75.0,103.0,77.0,-37.0,4.0,-1.0,-13.0,-12.0,35.0,9.0,11.0,5.0,3.0,-3.0,-8.0,3.0,14.0,-22.0,-4.0
282,-49.0,0.0,5.0,20.0,-23.0,-47.0,10.0,8.0,-11.0,-3.0,2.0,15.0,-11.0,-46.0,-128.0,-55.0,2.0,-11.0,-9.0,-19.0,-4.0,-32.0,82.0,12.0,2.0,4.0,2.0,1.0,24.0,76.0,10.0,48.0,-2.0,1.0,-3.0,-2.0,-9.0,9.0,-108.0,-7.0,-52.0,-2.0,4.0,16.0,-49.0,-51.0,-89.0,-13.0,84.0,-2.0,-6.0,-25.0,44.0,6.0,33.0,41.0,-47.0,-4.0,-8.0,-5.0,5.0,6.0,7.0,29.0
283,-26.0,2.0,0.0,-6.0,11.0,34.0,99.0,7.0,0.0,-1.0,1.0,-1.0,4.0,12.0,3.0,15.0,-40.0,0.0,2.0,15.0,-18.0,-42.0,-128.0,-43.0,33.0,-7.0,1.0,10.0,-8.0,-32.0,11.0,22.0,29.0,-1.0,-11.0,-32.0,2.0,36.0,63.0,-12.0,-27.0,-3.0,0.0,0.0,16.0,14.0,-15.0,-25.0,-16.0,4.0,3.0,2.0,-6.0,16.0,-47.0,-40.0,22.0,-3.0,-3.0,6.0,5.0,-17.0,-56.0,-9.0
284,-12.0,4.0,7.0,36.0,-2.0,-38.0,-2.0,52.0,-53.0,-15.0,-9.0,-32.0,17.0,-22.0,-100.0,-44.0,78.0,3.0,-7.0,-1.0,-11.0,41.0,127.0,7.0,21.0,1.0,-3.0,-2.0,7.0,18.0,-7.0,10.0,-6.0,2.0,2.0,1.0,-13.0,-5.0,-64.0,-13.0,7.0,1.0,3.0,21.0,2.0,-37.0,-95.0,-17.0,-46.0,-4.0,2.0,-14.0,4.0,9.0,29.0,28.0,-2.0,0.0,-9.0,-25.0,18.0,19.0,86.0,7.0
285,4.0,3.0,8.0,17.0,1.0,19.0,1.0,-5.0,36.0,-2.0,-5.0,-5.0,-6.0,5.0,34.0,16.0,-62.0,-15.0,0.0,27.0,-9.0,-59.0,-128.0,-39.0,78.0,12.0,-7.0,-51.0,-3.0,33.0,120.0,-22.0,-23.0,4.0,4.0,6.0,10.0,12.0,-87.0,-5.0,19.0,1.0,-2.0,-4.0,2.0,22.0,127.0,45.0,-5.0,3.0,2.0,8.0,-15.0,-10.0,-9.0,14.0,-34.0,-3.0,4.0,18.0,1.0,-38.0,-37.0,-17.0
286,14.0,-3.0,-4.0,-6.0,16.0,-12.0,-113.0,-23.0,15.0,0.0,-2.0,-16.0,-23.0,19.0,56.0,-13.0,-18.0,0.0,-2.0,4.0,5.0,5.0,-2.0,18.0,-18.0,-2.0,5.0,4.0,-18.0,-25.0,-4.0,-30.0,-49.0,1.0,0.0,4.0,42.0,19.0,1.0,12.0,34.0,-9.0,-2.0,21.0,-19.0,-36.0,-115.0,-71.0,-4.0,4.0,-7.0,-31.0,28.0,75.0,127.0,72.0,-1.0,-3.0,3.0,14.0,-7.0,8.0,-108.0,-16.0
287,1.0,-5.0,-3.0,1.0,-23.0,-24.0,-20.0,22.0,-61.0,-4.0,7.0,6.0,11.0,-20.0,-96.0,-99.0,38.0,4.0,-7.0,-5.0,0.0,-20.0,9.0,18.0,25.0,-3.0,-2.0,-7.0,-6.0,16.0,64.0,26.0,11.0,3.0,2.0,2.0,7.0,23.0,57.0,10.0,11.0,5.0,-1.0,-2.0,2.0,10.0,46.0,57.0,-12.0,-15.0,7.0,25.0,-18.0,-48.0,-128.0,-77.0,-16.0,5.0,-13.0,-29.0,53.0,2.0,57.0,5.0
288,15.0,1.0,-6.0,-5.0,-5.0,48.0,81.0,0.0,12.0,2.0,2.0,-3.0,3.0,14.0,-6.0,19.0,-6.0,1.0,-1.0,6.0,-3.0,17.0,-5.0,-5.0,-23.0,-2.0,7.0,22.0,-14.0,-24.0,-83.0,-17.0,9.0,-2.0,5.0,9.0,13.0,-21.0,8.0,-8.0,3.0,3.0,-4.0,-24.0,-2.0,2.0,-56.0,12.0,-28.0,1.0,0.0,3.0,-2.0,1.0,78.0,-23.0,-6.0,-3.0,-5.0,5.0,8.0,22.0,46.0,8.0
289,3.0,0.0,0.0,-2.0,-3.0,-6.0,-29.0,-13.0,-25.0,2.0,5.0,10.0,-2.0,0.0,15.0,26.0,29.0,-4.0,-3.0,-2.0,9.0,4.0,-26.0,-22.0,-9.0,-6.0,-1.0,-12.0,-25.0,-29.0,-78.0,-4.0,-42.0,1.0,0.0,-4.0,7.0,22.0,85.0,11.0,70.0,1.0,-3.0,-3.0,5.0,5.0,-29.0,-13.0,-10.0,1.0,-1.0,2.0,5.0,9.0,-22.0,14.0,-10.0,6.0,9.0,22.0,-28.0,-25.0,-16.0,-18.0
290,-46.0,-11.0,-14.0,-24.0,9.0,-15.0,-128.0,-43.0,19.0,-3.0,-9.0,-17.0,10.0,39.0,127.0,42.0,-9.0,7.0,4.0,2.0,9.0,14.0,-21.0,-13.0,15.0,-2.0,3.0,10.0,-3.0,6.0,9.0,21.0,11.0,0.0,4.0,13.0,-6.0,-21.0,-5.0,4.0,-49.0,-2.0,-3.0,-9.0,-7.0,-17.0,9.0,-18.0,12.0,-9.0,-6.0,-11.0,-10.0,-18.0,-93.0,-14.0,17.0,2.0,0.0,-1.0,27.0,32.0,94.0,14.0
291,18.0,-4.0,-3.0,-3.0,-4.0,9.0,-11.0,12.0,-24.0,-3.0,-2.0,8.0,12.0,11.0,-39.0,-2.0,-22.0,11.0,4.0,9.0,-10.0,-10.0,4.0,17.0,-25.0,-3.0,2.0,-10.0,-3.0,-22.0,-87.0,-30.0,20.0,0.0,-8.0,-33.0,-24.0,9.0,21.0,-13.0,11.0,1.0,5.0,8.0,0.0,7.0,24.0,17.0,-15.0,-1.0,1.0,0.0,7.0,5.0,-5.0,-2.0,4.0,-3.0,-1.0,11.0,-21.0,-5.0,-38.0,-11.0
292,6.0,0.0,-2.0,-3.0,29.0,-36.0,-68.0,9.0,-32.0,-3.0,-2.0,-13.0,-35.0,-13.0,62.0,-8.0,26.0,2.0,-1.0,-3.0,30.0,46.0,127.0,26.0,-8.0,-3.0,-4.0,1.0,6.0,13.0,-17.0,14.0,11.0,2.0,5.0,16.0,-14.0,-11.0,-92.0,-3.0,-40.0,-4.0,-3.0,6.0,2.0,-23.0,-122.0,-33.0,22.0,-2.0,-3.0,-19.0,-23.0,-17.0,93.0,80.0,-16.0,1.0,-5.0,-17.0,22.0,41.0,47.0,-27.0
293,15.0,2.0,3.0,7.0,-9.0,33.0,36.0,8.0,12.0,-5.0,-1.0,-1.0,20.0,6.0,-1.0,10.0,-15.0,-2.0,0.0,9.0,-4.0,-14.0,-21.0,-8.0,-5.0,5.0,4.0,7.0,-13.0,-33.0,-102.0,-10.0,-42.0,-7.0,-6.0,-17.0,7.0,-9.0,67.0,-6.0,62.0,9.0,2.0,3.0,7.0,27.0,29.0,25.0,-15.0,0.0,-1.0,-2.0,12.0,19.0,-42.0,-31.0,-1.0,-3.0,-2.0,0.0,-19.0,-12.0,-2.0,1.0
294,-4.0,0.0,2.0,18.0,30.0,-16.0,-26.0,-17.0,-31.0,1.0,6.0,15.0,-18.0,-35.0,-107.0,-20.0,23.0,-4.0,-19.0,-51.0,1.0,38.0,81.0,44.0,4.0,2.0,3.0,7.0,10.0,34.0,9.0,-5.0,14.0,-4.0,-4.0,8.0,-9.0,6.0,21.0,41.0,-12.0,-1.0,-1.0,1.0,2.0,-11.0,-3.0,-15.0,-23.0,3.0,9.0,23.0,7.0,-23.0,-59.0,-38.0,-29.0,-6.0,-5.0,-8.0,13.0,-5.0,-55.0,-19.0
295,97.0,-3.0,-7.0,-20.0,-30.0,14.0,105.0,58.0,-6.0,-2.0,-7.0,-10.0,-21.0,-26.0,-100.0,22.0,-4.0,5.0,9.0,17.0,35.0,41.0,78.0,-35.0,4.0,-1.0,-1.0,2.0,1.0,11.0,54.0,11.0,-30.0,3.0,5.0,16.0,-8.0,-24.0,-106.0,-27.0,-23.0,-3.0,1.0,5.0,12.0,-27.0,-76.0,-73.0,43.0,-3.0,-8.0,-27.0,-25.0,10.0,63.0,77.0,3.0,1.0,-4.0,-10.0,19.0,34.0,-2.0,31.0
296,-7.0,-3.0,-2.0,1.0,-5.0,6.0,-90.0,-24.0,18.0,1.0,-5.0,-3.0,-9.0,-2.0,-25.0,24.0,-29.0,-3.0,3.0,22.0,-11.0,-47.0,-128.0,-61.0,-32.0,-1.0,-2.0,-12.0,24.0,11.0,110.0,-18.0,29.0,-4.0,-1.0,-9.0,-5.0,13.0,-42.0,6.0,15.0,-5.0,-6.0,-16.0,3.0,4.0,47.0,24.0,-10.0,3.0,6.0,13.0,-1.0,21.0,-20.0,18.0,3.0,-2.0,7.0,10.0,12.0,-28.0,-19.0,49.0
297,27.0,3.0,-3.0,-7.0,11.0,22.0,74.0,64.0,8.0,-6.0,-3.0,-3.0,-21.0,-15.0,-49.0,-30.0,-5.0,-2.0,1.0,-1.0,12.0,3.0,15.0,10.0,-3.0,0.0,4.0,6.0,-1.0,10.0,25.0,19.0,-20.0,0.0,1.0,-2.0,4.0,-13.0,-18.0,-28.0,0.0,0.0,-1.0,10.0,-13.0,-11.0,-32.0,1.0,-8.0,-3.0,-6.0,-25.0,7.0,-22.0,-2.0,-31.0,17.0,2.0,-1.0,5.0,5.0,38.0,127.0,56.0
298,-31.0,-6.0,-3.0,-4.0,7.0,11.0,-42.0,-52.0,10.0,1.0,1.0,1.0,-3.0,12.0,29.0,25.0,0.0,3.0,1.0,12.0,5.0,6.0,-6.0,7.0,-23.0,-4.0,1.0,0.0,-10.0,-28.0,-128.0,-35.0,-6.0,-2.0,-1.0,0.0,13.0,-15.0,7.0,-37.0,5.0,-2.0,-4.0,-10.0,-26.0,-15.0,46.0,-23.0,8.0,5.0,4.0,9.0,23.0,19.0,-49.0,-24.0,-48.0,1.0,4.0,5.0,14.0,21.0,41.0,14.0
299,35.0,3.0,3.0,20.0,-16.0,-22.0,-71.0,-13.0,59.0,-2.0,-10.0,-35.0,-3.0,-21.0,36.0,56.0,21.0,2.0,-4.0,-1.0,-11.0,49.0,55.0,19.0,-2.0,-5.0,-3.0,5.0,11.0,17.0,-45.0,-10.0,-11.0,2.0,6.0,3.0,4.0,1.0,-86.0,19.0,-31.0,-3.0,1.0,9.0,-14.0,-42.0,11.0,-44.0,0.0,-7.0,3.0,2.0,-30.0,-72.0,-110.0,-102.0,15.0,0.0,-3.0,-16.0,49.0,39.0,127.0,112.0
300,2.0,7.0,5.0,-6.0,18.0,76.0,88.0,20.0,-15.0,-6.0,-6.0,-3.0,-15.0,-19.0,-128.0,-51.0,-2.0,0.0,-3.0,6.0,15.0,29.0,87.0,59.0,-62.0,-3.0,5.0,40.0,-43.0,-62.0,-128.0,-65.0,39.0,-19.0,-24.0,-84.0,-36.0,-109.0,-83.0,-108.0,36.0,19.0,9.0,8.0,39.0,122.0,99.0,127.0,12.0,5.0,5.0,11.0,26.0,80.0,87.0,68.0,8.0,-2.0,-2.0,-4.0,-10.0,-2.0,-85.0,-22.0
301,-26.0,0.0,7.0,31.0,0.0,-9.0,-58.0,28.0,-55.0,-22.0,-14.0,-18.0,-63.0,-128.0,-128.0,-128.0,43.0,12.0,2.0,-4.0,45.0,71.0,86.0,92.0,17.0,4.0,4.0,7.0,23.0,43.0,-89.0,-6.0,-19.0,-3.0,-3.0,8.0,10.0,32.0,-78.0,-44.0,-6.0,-4.0,-2.0,1.0,-5.0,-22.0,-104.0,-39.0,-9.0,0.0,2.0,7.0,-12.0,-60.0,-43.0,-29.0,1.0,-5.0,0.0,0.0,-2.0,-25.0,39.0,26.0
302,-30.0,0.0,-1.0,-13.0,11.0,20.0,15.0,-3.0,45.0,3.0,3.0,12.0,11.0,14.0,9.0,9.0,-81.0,-3.0,-1.0,-8.0,-13.0,-13.0,-21.0,-14.0,105.0,2.0,-2.0,-2.0,-15.0,-24.0,-65.0,-33.0,-17.0,3.0,5.0,19.0,15.0,8.0,118.0,74.0,5.0,3.0,-3.0,-7.0,42.0,50.0,93.0,21.0,-11.0,-4.0,-3.0,-5.0,-6.0,13.0,-3.0,16.0,-20.0,0.0,-1.0,-2.0,-2.0,3.0,-4.0,-7.0
303,-11.0,-6.0,-4.0,10.0,-14.0,-22.0,-115.0,-21.0,-20.0,3.0,3.0,-1.0,-9.0,-22.0,-30.0,15.0,13.0,-10.0,-2.0,4.0,-23.0,-62.0,-128.0,-103.0,12.0,7.0,2.0,-11.0,32.0,56.0,108.0,79.0,23.0,2.0,0.0,3.0,26.0,42.0,1.0,1.0,-11.0,1.0,3.0,2.0,-9.0,23.0,-54.0,40.0,-12.0,-8.0,-8.0,-7.0,-14.0,-33.0,-123.0,-43.0,-10.0,-5.0,-4.0,-4.0,-31.0,-31.0,-27.0,-35.0
304,-41.0,1.0,3.0,12.0,10.0,-6.0,-16.0,16.0,68.0,3.0,4.0,-3.0,23.0,25.0,62.0,-21.0,-2.0,-4.0,-7.0,-2.0,-3.0,-3.0,11.0,-5.0,-10.0,-1.0,-3.0,-7.0,9.0,-4.0,29.0,-10.0,12.0,2.0,0.0,3.0,-3.0,19.0,52.0,21.0,-90.0,-14.0,-5.0,8.0,-44.0,-73.0,-128.0,-111.0,97.0,6.0,-2.0,-15.0,41.0,18.0,108.0,111.0,21.0,7.0,3.0,-2.0,27.0,87.0,75.0,67.0
305,5.0,0.0,0.0,0.0,3.0,7.0,-108.0,-5.0,-20.0,3.0,4.0,12.0,0.0,28.0,-9.0,12.0,-24.0,-1.0,4.0,13.0,-8.0,-48.0,-89.0,-45.0,-73.0,-7.0,-6.0,-21.0,-16.0,-73.0,-128.0,-127.0,74.0,11.0,3.0,6.0,12.0,61.0,127.0,121.0,15.0,7.0,2.0,-3.0,26.0,54.0,51.0,41.0,-4.0,-4.0,0.0,7.0,-10.0,5.0,-48.0,-8.0,-19.0,-3.0,3.0,11.0,10.0,-3.0,-80.0,-27.0
306,-7.0,-6.0,1.0,7.0,-32.0,-63.0,-56.0,-67.0,0.0,-3.0,-6.0,-24.0,18.0,8.0,23.0,29.0,13.0,1.0,2.0,4.0,3.0,20.0,21.0,-5.0,-1.0,0.0,2.0,-2.0,-1.0,8.0,12.0,14.0,-5.0,-3.0,-2.0,-6.0,-8.0,-12.0,9.0,-19.0,-5.0,0.0,6.0,29.0,26.0,-3.0,3.0,33.0,-31.0,-6.0,-5.0,-23.0,-14.0,-52.0,-87.0,-89.0,13.0,-1.0,-8.0,-4.0,2.0,30.0,-4.0,24.0
307,5.0,4.0,4.0,6.0,20.0,49.0,123.0,34.0,-27.0,-1.0,-2.0,-1.0,3.0,14.0,-46.0,7.0,43.0,-1.0,3.0,13.0,-9.0,-19.0,-90.0,-24.0,8.0,0.0,0.0,7.0,-2.0,-28.0,-30.0,-4.0,-26.0,-5.0,-2.0,-11.0,-5.0,-13.0,-71.0,-20.0,13.0,0.0,1.0,-3.0,-4.0,6.0,-8.0,-58.0,-18.0,-3.0,-5.0,-5.0,-5.0,1.0,44.0,43.0,7.0,3.0,0.0,-4.0,8.0,17.0,53.0,15.0
308,8.0,3.0,1.0,5.0,4.0,-8.0,-20.0,11.0,-52.0,-10.0,-4.0,-7.0,-24.0,-50.0,-90.0,-69.0,43.0,7.0,0.0,-10.0,5.0,41.0,70.0,80.0,11.0,3.0,3.0,7.0,13.0,22.0,96.0,32.0,-22.0,-8.0,-6.0,-11.0,-8.0,-1.0,-17.0,-24.0,6.0,-3.0,-4.0,-6.0,-13.0,-14.0,-49.0,2.0,-56.0,-4.0,4.0,13.0,21.0,-9.0,-19.0,-21.0,53.0,4.0,1.0,-8.0,-9.0,-1.0,-1.0,-4.0
309,-6.0,-6.0,-4.0,-2.0,-3.0,-26.0,-119.0,-69.0,46.0,11.0,4.0,7.0,14.0,49.0,111.0,118.0,-37.0,-1.0,1.0,7.0,1.0,22.0,-56.0,2.0,-14.0,-2.0,0.0,11.0,2.0,-16.0,-35.0,-15.0,-15.0,-6.0,-4.0,-11.0,-11.0,-17.0,-128.0,-34.0,21.0,2.0,-6.0,-8.0,0.0,5.0,98.0,35.0,-3.0,0.0,-1.0,-1.0,-4.0,-4.0,43.0,-7.0,-9.0,-4.0,-3.0,-2.0,2.0,-1.0,-27.0,-3.0
310,6.0,3.0,1.0,1.0,-2.0,-2.0,28.0,5.0,-32.0,-1.0,6.0,11.0,4.0,-19.0,-38.0,-1.0,52.0,-2.0,-7.0,-14.0,-11.0,5.0,14.0,5.0,-11.0,-8.0,-9.0,-9.0,-9.0,-3.0,-21.0,-21.0,-10.0,2.0,1.0,1.0,10.0,8.0,42.0,18.0,15.0,0.0,-2.0,-4.0,0.0,9.0,9.0,8.0,-22.0,1.0,2.0,8.0,-13.0,-11.0,-12.0,-21.0,-23.0,-3.0,-1.0,-12.0,10.0,-6.0,-20.0,-12.0
311,9.0,-2.0,-2.0,2.0,-2.0,15.0,49.0,18.0,3.0,-4.0,-2.0,1.0,-2.0,-1.0,-21.0,-1.0,-3.0,0.0,-3.0,-5.0,-8.0,-7.0,-12.0,-6.0,-14.0,-2.0,0.0,3.0,0.0,-4.0,-8.0,0.0,9.0,1.0,-2.0,-2.0,5.0,5.0,28.0,15.0,17.0,-3.0,-2.0,-2.0,-1.0,-2.0,-18.0,-12.0,-24.0,1.0,-1.0,-1.0,-4.0,-4.0,-3.0,-1.0,-1.0,-2.0,0.0,-2.0,2.0,4.0,9.0,1.0
312,3.0,0.0,2.0,8.0,1.0,4.0,5.0,-10.0,2.0,-2.0,-1.0,-2.0,1.0,-3.0,-10.0,6.0,2.0,-3.0,-8.0,-13.0,-3.0,-2.0,1.0,-5.0,-82.0,-4.0,1.0,4.0,-3.0,2.0,-8.0,-14.0,91.0,7.0,5.0,9.0,6.0,-6.0,4.0,18.0,41.0,-1.0,-7.0,-17.0,-5.0,10.0,-11.0,-3.0,-8.0,-1.0,2.0,2.0,-6.0,2.0,2.0,5.0,12.0,0.0,1.0,4.0,-19.0,-8.0,-7.0,5.0
313,-40.0,0.0,-1.0,-4.0,27.0,7.0,-20.0,-10.0,-3.0,-2.0,0.0,2.0,-7.0,3.0,17.0,-2.0,6.0,-1.0,2.0,-2.0,-1.0,3.0,9.0,-2.0,11.0,0.0,0.0,1.0,1.0,4.0,-3.0,1.0,-29.0,-3.0,3.0,1.0,-6.0,-10.0,11.0,0.0,11.0,2.0,2.0,4.0,5.0,-5.0,-30.0,-29.0,-15.0,-8.0,-7.0,-7.0,11.0,2.0,-15.0,23.0,10.0,-1.0,2.0,3.0,7.0,1.0,25.0,2.0
314,-10.0,-5.0,-5.0,-4.0,-2.0,3.0,3.0,-5.0,-13.0,1.0,0.0,1.0,-2.0,0.0,-4.0,2.0,-2.0,-2.0,2.0,5.0,-8.0,-9.0,-2.0,-7.0,-11.0,1.0,1.0,2.0,9.0,0.0,-8.0,-3.0,25.0,-4.0,-11.0,-25.0,-7.0,10.0,9.0,6.0,-8.0,0.0,2.0,4.0,-1.0,-4.0,-2.0,1.0,8.0,0.0,-1.0,-2.0,-6.0,-6.0,-2.0,-1.0,-6.0,5.0,8.0,22.0,20.0,-1.0,-6.0,22.0
315,-72.0,-8.0,-2.0,-19.0,-20.0,-11.0,-57.0,-67.0,64.0,9.0,-6.0,-14.0,32.0,42.0,83.0,57.0,-27.0,-1.0,2.0,4.0,-8.0,-5.0,-48.0,7.0,32.0,3.0,4.0,27.0,-2.0,5.0,108.0,23.0,-54.0,-6.0,-4.0,-23.0,13.0,7.0,-24.0,-10.0,22.0,-3.0,-7.0,-1.0,-22.0,-7.0,-66.0,-31.0,15.0,7.0,7.0,5.0,3.0,2.0,38.0,24.0,-11.0,-4.0,-6.0,-6.0,-1.0,3.0,-24.0,-32.0
316,4.0,-2.0,1.0,13.0,-4.0,-26.0,7.0,27.0,-11.0,-10.0,2.0,8.0,-13.0,-23.0,-67.0,-47.0,-6.0,-1.0,-10.0,-15.0,31.0,19.0,6.0,8.0,29.0,1.0,0.0,-11.0,-8.0,12.0,-6.0,7.0,6.0,8.0,1.0,15.0,7.0,1.0,13.0,1.0,-34.0,4.0,6.0,11.0,-11.0,-4.0,15.0,38.0,3.0,-5.0,-1.0,3.0,-5.0,-22.0,-49.0,-66.0,-14.0,-11.0,-13.0,-8.0,14.0,0.0,20.0,-30.0
317,28.0,18.0,13.0,7.0,19.0,56.0,18.0,27.0,-38.0,-13.0,-14.0,-22.0,-20.0,-16.0,-47.0,-19.0,-9.0,8.0,7.0,-2.0,-27.0,-21.0,40.0,10.0,11.0,1.0,5.0,4.0,27.0,4.0,12.0,15.0,-10.0,-11.0,-10.0,-9.0,-26.0,-28.0,-67.0,-54.0,43.0,6.0,3.0,16.0,24.0,47.0,127.0,79.0,-9.0,8.0,11.0,13.0,13.0,7.0,-94.0,-29.0,-38.0,0.0,-1.0,-16.0,-34.0,0.0,4.0,17.0
318,57.0,6.0,6.0,26.0,20.0,-30.0,-21.0,-27.0,2.0,-1.0,-5.0,-29.0,-3.0,8.0,-2.0,17.0,-21.0,-21.0,-22.0,-5.0,-28.0,-22.0,-27.0,-12.0,8.0,5.0,6.0,1.0,15.0,18.0,-34.0,-4.0,2.0,-1.0,3.0,11.0,-3.0,-11.0,16.0,27.0,-28.0,-4.0,5.0,19.0,7.0,-71.0,-128.0,-71.0,10.0,7.0,1.0,-29.0,11.0,53.0,127.0,8.0,30.0,-5.0,-10.0,-1.0,6.0,44.0,63.0,48.0
319,-11.0,-11.0,-10.0,3.0,-6.0,11.0,29.0,18.0,-1.0,0.0,1.0,7.0,-1.0,-4.0,-92.0,-32.0,-45.0,1.0,9.0,17.0,-6.0,-27.0,60.0,0.0,48.0,-3.0,-1.0,-12.0,6.0,-18.0,-58.0,-42.0,-42.0,-4.0,-3.0,-7.0,-16.0,15.0,12.0,36.0,12.0,-3.0,-1.0,15.0,-17.0,-13.0,-13.0,14.0,22.0,1.0,-3.0,-16.0,27.0,22.0,27.0,9.0,-32.0,-6.0,-6.0,-5.0,-17.0,-10.0,-86.0,-15.0
320,27.0,7.0,7.0,13.0,3.0,21.0,124.0,48.0,-32.0,12.0,17.0,-9.0,12.0,8.0,-77.0,-19.0,28.0,-2.0,-2.0,8.0,10.0,-24.0,18.0,-2.0,3.0,-2.0,-11.0,-18.0,-6.0,18.0,-102.0,-22.0,3.0,-6.0,-5.0,-3.0,-12.0,3.0,61.0,21.0,-5.0,13.0,12.0,0.0,9.0,12.0,47.0,33.0,9.0,1.0,0.0,8.0,-1.0,2.0,-4.0,5.0,-16.0,1.0,-1.0,7.0,3.0,-22.0,-88.0,1.0
321,7.0,-3.0,2.0,0.0,-1.0,-9.0,-18.0,-54.0,-17.0,-4.0,-5.0,-8.0,1.0,4.0,-31.0,10.0,8.0,-7.0,-5.0,-2.0,-32.0,-30.0,-112.0,10.0,14.0,0.0,2.0,-8.0,31.0,23.0,125.0,31.0,-23.0,-6.0,-3.0,7.0,0.0,26.0,-119.0,-6.0,7.0,-3.0,0.0,4.0,19.0,8.0,34.0,-5.0,-10.0,0.0,3.0,3.0,-16.0,-18.0,-128.0,-27.0,-40.0,-11.0,-6.0,-4.0,-21.0,-60.0,-109.0,-44.0
322,18.0,2.0,1.0,-1.0,8.0,7.0,-89.0,14.0,-23.0,5.0,-1.0,-7.0,35.0,73.0,127.0,84.0,63.0,-3.0,-9.0,-2.0,-5.0,-1.0,-90.0,-8.0,-2.0,-2.0,-4.0,9.0,-14.0,1.0,-38.0,-1.0,-2.0,-1.0,0.0,10.0,27.0,-25.0,-69.0,-21.0,1.0,3.0,2.0,-7.0,-39.0,-30.0,-128.0,-36.0,-75.0,-5.0,-5.0,-5.0,-3.0,-11.0,-66.0,-81.0,77.0,5.0,-2.0,-10.0,18.0,45.0,116.0,82.0
323,18.0,10.0,9.0,4.0,16.0,37.0,30.0,58.0,-43.0,-9.0,-6.0,-2.0,7.0,-6.0,-63.0,-27.0,29.0,4.0,7.0,19.0,-6.0,-15.0,-25.0,22.0,-30.0,-9.0,-9.0,-12.0,-4.0,-21.0,-82.0,-57.0,-13.0,4.0,0.0,-33.0,-29.0,-39.0,-96.0,-48.0,10.0,-6.0,-7.0,11.0,-10.0,-10.0,127.0,18.0,-29.0,-5.0,-1.0,-9.0,-8.0,-19.0,-127.0,-43.0,25.0,12.0,9.0,15.0,20.0,31.0,113.0,53.0
324,8.0,-5.0,-4.0,10.0,30.0,14.0,101.0,75.0,24.0,-2.0,-11.0,-22.0,1.0,34.0,74.0,-22.0,-15.0,-3.0,0.0,6.0,-12.0,-7.0,-62.0,15.0,-23.0,-4.0,0.0,5.0,-14.0,-27.0,42.0,-33.0,-21.0,2.0,5.0,-2.0,-29.0,-36.0,-69.0,-31.0,-2.0,1.0,4.0,6.0,13.0,-26.0,-29.0,-5.0,7.0,0.0,-7.0,-18.0,-22.0,10.0,-55.0,14.0,-74.0,-13.0,-11.0,-2.0,-13.0,-47.0,-38.0,-89.0
325,81.0,-12.0,-17.0,-5.0,-24.0,-72.0,-72.0,-57.0,26.0,24.0,25.0,-2.0,41.0,73.0,34.0,71.0,-3.0,-5.0,-1.0,9.0,26.0,38.0,-79.0,25.0,19.0,0.0,-1.0,0.0,-8.0,-7.0,-93.0,11.0,-34.0,1.0,4.0,3.0,3.0,-11.0,-109.0,-17.0,-51.0,-22.0,-15.0,-20.0,-70.0,-116.0,7.0,-102.0,23.0,12.0,4.0,0.0,37.0,60.0,127.0,48.0,18.0,-9.0,-12.0,-2.0,21.0,31.0,-79.0,17.0
326,4.0,15.0,15.0,1.0,-3.0,10.0,125.0,38.0,-1.0,-4.0,-1.0,14.0,5.0,-2.0,-128.0,-31.0,-27.0,-3.0,-5.0,-15.0,-16.0,-49.0,104.0,-29.0,-9.0,-6.0,-10.0,-6.0,-27.0,-5.0,-67.0,-22.0,18.0,8.0,1.0,-2.0,32.0,40.0,80.0,29.0,-16.0,-2.0,-3.0,-4.0,4.0,28.0,-25.0,1.0,2.0,0.0,3.0,1.0,-19.0,-28.0,-70.0,-24.0,3.0,1.0,6.0,12.0,2.0,-10.0,35.0,17.0
327,17.0,-5.0,-7.0,-8.0,1.0,-20.0,60.0,-2.0,-10.0,12.0,13.0,-5.0,-2.0,22.0,32.0,33.0,-17.0,-11.0,-8.0,8.0,7.0,-24.0,-65.0,-46.0,18.0,-3.0,3.0,7.0,-3.0,-9.0,-1.0,-3.0,-19.0,3.0,4.0,-6.0,3.0,30.0,92.0,38.0,11.0,0.0,-4.0,12.0,15.0,19.0,-34.0,27.0,8.0,3.0,0.0,-2.0,-5.0,-8.0,-5.0,-9.0,3.0,-1.0,-1.0,7.0,12.0,-13.0,15.0,7.0
328,-4.0,3.0,-2.0,-29.0,0.0,12.0,-8.0,-4.0,10.0,-1.0,1.0,5.0,2.0,13.0,-62.0,-6.0,-11.0,-6.0,-11.0,-8.0,-11.0,-1.0,-26.0,-27.0,-9.0,-4.0,-6.0,3.0,11.0,-2.0,1.0,-27.0,-3.0,2.0,5.0,15.0,-2.0,-10.0,2.0,19.0,18.0,2.0,5.0,2.0,3.0,-11.0,41.0,7.0,-3.0,-6.0,-7.0,-11.0,-6.0,5.0,-30.0,8.0,-42.0,-6.0,-5.0,-8.0,-13.0,-22.0,-107.0,-60.0
329,56.0,-3.0,-7.0,6.0,-6.0,-1.0,100.0,82.0,-7.0,6.0,8.0,4.0,8.0,16.0,-43.0,-13.0,27.0,3.0,5.0,-2.0,24.0,-3.0,-40.0,6.0,-22.0,-4.0,-4.0,2.0,6.0,15.0,-21.0,18.0,-1.0,6.0,6.0,-2.0,-9.0,13.0,77.0,-37.0,3.0,-2.0,-5.0,-2.0,0.0,-8.0,-29.0,-8.0,-21.0,-6.0,-6.0,-4.0,-10.0,-13.0,29.0,17.0,22.0,0.0,-1.0,-1.0,6.0,0.0,-32.0,-28.0
330,-3.0,3.0,1.0,5.0,-2.0,-4.0,-19.0,5.0,16.0,5.0,12.0,18.0,-16.0,-10.0,16.0,36.0,-41.0,-4.0,-10.0,-25.0,8.0,-15.0,-92.0,-75.0,24.0,1.0,2.0,0.0,6.0,20.0,99.0,57.0,6.0,0.0,-2.0,5.0,1.0,35.0,74.0,2.0,-20.0,-6.0,-6.0,4.0,1.0,5.0,6.0,21.0,14.0,1.0,2.0,4.0,-2.0,-14.0,-38.0,4.0,-10.0,-3.0,-3.0,1.0,13.0,-2.0,-39.0,-17.0
331,-34.0,-8.0,-8.0,0.0,-24.0,-17.0,-24.0,8.0,27.0,5.0,4.0,5.0,4.0,-6.0,-52.0,-32.0,-9.0,-4.0,-5.0,-13.0,18.0,-2.0,33.0,-6.0,19.0,-2.0,-5.0,1.0,-7.0,27.0,30.0,11.0,-26.0,0.0,1.0,4.0,-3.0,-3.0,-32.0,-12.0,-15.0,-6.0,-3.0,-8.0,-6.0,-12.0,-7.0,-15.0,13.0,-1.0,5.0,9.0,-7.0,-6.0,-77.0,4.0,-14.0,0.0,-1.0,-6.0,-3.0,-12.0,63.0,-36.0
332,16.0,-1.0,0.0,2.0,3.0,2.0,-16.0,5.0,-7.0,-1.0,0.0,0.0,10.0,5.0,19.0,12.0,-4.0,-9.0,-9.0,-15.0,-22.0,1.0,-29.0,-18.0,12.0,0.0,0.0,0.0,14.0,3.0,41.0,24.0,-2.0,2.0,2.0,4.0,-4.0,8.0,-26.0,-11.0,12.0,2.0,3.0,2.0,8.0,-13.0,21.0,6.0,-3.0,2.0,5.0,12.0,-11.0,7.0,10.0,-1.0,-63.0,-1.0,-4.0,-10.0,25.0,-7.0,-89.0,-8.0
333,90.0,2.0,-1.0,1.0,-10.0,-21.0,31.0,-5.0,-13.0,0.0,-6.0,-9.0,2.0,15.0,13.0,2.0,-1.0,1.0,-2.0,3.0,3.0,0.0,32.0,5.0,4.0,3.0,5.0,3.0,4.0,11.0,0.0,9.0,-15.0,-1.0,6.0,8.0,7.0,-4.0,-9.0,7.0,-15.0,-8.0,-6.0,-23.0,2.0,-17.0,-128.0,-40.0,22.0,8.0,4.0,3.0,-13.0,16.0,127.0,43.0,4.0,-1.0,1.0,7.0,9.0,19.0,12.0,-23.0
334,-20.0,-4.0,-6.0,-7.0,4.0,2.0,-55.0,-17.0,7.0,-1.0,-1.0,0.0,-9.0,-7.0,20.0,8.0,-11.0,2.0,6.0,13.0,7.0,-12.0,-24.0,-4.0,-17.0,-5.0,-3.0,-6.0,-13.0,-8.0,-43.0,-25.0,33.0,-5.0,-10.0,-22.0,2.0,5.0,26.0,29.0,-4.0,4.0,3.0,4.0,-2.0,12.0,23.0,1.0,8.0,1.0,-1.0,-1.0,9.0,14.0,20.0,3.0,-41.0,1.0,4.0,4.0,-10.0,-15.0,0.0,7.0
335,52.0,2.0,1.0,5.0,-2.0,-20.0,-78.0,-12.0,-8.0,-1.0,1.0,-2.0,-3.0,-5.0,20.0,-11.0,-4.0,0.0,-1.0,-18.0,-24.0,5.0,-65.0,-8.0,26.0,4.0,4.0,5.0,38.0,25.0,77.0,64.0,-38.0,2.0,2.0,1.0,0.0,6.0,-37.0,-5.0,6.0,3.0,4.0,-3.0,-1.0,6.0,28.0,9.0,0.0,0.0,1.0,7.0,-7.0,-15.0,-55.0,-15.0,-2.0,-14.0,-8.0,1.0,-1.0,-14.0,-106.0,-59.0
336,-6.0,-1.0,-1.0,-17.0,10.0,13.0,85.0,24.0,1.0,2.0,-2.0,-2.0,-5.0,3.0,-33.0,-5.0,7.0,3.0,1.0,4.0,17.0,24.0,94.0,31.0,8.0,5.0,1.0,2.0,-3.0,0.0,-36.0,-6.0,-26.0,-1.0,9.0,20.0,1.0,-52.0,-95.0,-61.0,-6.0,-13.0,-21.0,-37.0,5.0,22.0,64.0,29.0,3.0,7.0,8.0,8.0,14.0,26.0,49.0,12.0,18.0,-1.0,0.0,-2.0,-6.0,15.0,-3.0,6.0
337,-27.0,0.0,5.0,15.0,-6.0,-3.0,-58.0,-20.0,-2.0,0.0,2.0,9.0,3.0,-23.0,-4.0,-6.0,10.0,0.0,-2.0,-8.0,6.0,-11.0,-10.0,-4.0,-12.0,-3.0,-9.0,-21.0,-2.0,10.0,8.0,6.0,-6.0,-15.0,-13.0,8.0,-9.0,-16.0,-4.0,23.0,4.0,7.0,5.0,-11.0,5.0,15.0,-13.0,-13.0,-6.0,-8.0,-8.0,5.0,-6.0,-13.0,-65.0,0.0,4.0,4.0,7.0,11.0,6.0,1.0,73.0,-23.0
338,-9.0,-7.0,-9.0,-8.0,-5.0,6.0,56.0,19.0,9.0,0.0,4.0,15.0,5.0,-6.0,-50.0,6.0,-12.0,0.0,-2.0,-2.0,17.0,16.0,48.0,21.0,15.0,-3.0,-1.0,-1.0,-18.0,-6.0,-56.0,-19.0,-7.0,-1.0,-3.0,-12.0,6.0,13.0,34.0,-6.0,-8.0,-6.0,-3.0,14.0,-4.0,-2.0,15.0,11.0,2.0,1.0,1.0,-6.0,-12.0,-21.0,-23.0,-19.0,-23.0,-10.0,-12.0,-8.0,2.0,-9.0,-20.0,1.0
339,18.0,13.0,5.0,-13.0,4.0,11.0,41.0,27.0,4.0,-3.0,-3.0,7.0,3.0,3.0,-33.0,-2.0,-17.0,-8.0,-9.0,-3.0,-6.0,-7.0,-18.0,-7.0,18.0,6.0,3.0,3.0,-8.0,-9.0,1.0,19.0,-32.0,-11.0,-6.0,5.0,4.0,-12.0,-106.0,-62.0,9.0,0.0,-2.0,-22.0,8.0,16.0,74.0,33.0,-2.0,-9.0,-7.0,9.0,-2.0,8.0,8.0,-4.0,14.0,9.0,6.0,-5.0,19.0,18.0,24.0,17.0
340,3.0,2.0,3.0,6.0,-5.0,2.0,6.0,-5.0,-40.0,-1.0,3.0,8.0,-3.0,-27.0,-120.0,-26.0,59.0,3.0,3.0,1.0,4.0,12.0,127.0,42.0,2.0,-4.0,-2.0,2.0,21.0,6.0,-51.0,-7.0,-48.0,0.0,-2.0,-15.0,-17.0,10.0,31.0,0.0,62.0,6.0,-1.0,9.0,5.0,2.0,15.0,0.0,-1.0,-2.0,-2.0,10.0,-4.0,-10.0,-64.0,-7.0,-2.0,1.0,-1.0,-18.0,-9.0,-8.0,-84.0,-36.0
341,-3.0,-1.0,-3.0,-2.0,9.0,-9.0,49.0,27.0,-11.0,-1.0,-2.0,-5.0,-12.0,38.0,33.0,4.0,-15.0,-4.0,-2.0,9.0,12.0,-8.0,-73.0,0.0,17.0,5.0,3.0,-4.0,1.0,-9.0,109.0,21.0,1.0,-3.0,-5.0,-4.0,-5.0,15.0,-74.0,-36.0,-12.0,7.0,12.0,4.0,-3.0,-15.0,38.0,17.0,1.0,2.0,3.0,1.0,13.0,1.0,3.0,-1.0,-10.0,-3.0,-6.0,-7.0,0.0,14.0,28.0,2.0
342,0.0,-7.0,-10.0,0.0,-14.0,-6.0,-25.0,-27.0,0.0,1.0,2.0,-2.0,9.0,-14.0,-97.0,-9.0,-5.0,2.0,4.0,0.0,9.0,10.0,89.0,22.0,1.0,-3.0,1.0,9.0,2.0,5.0,-55.0,-15.0,6.0,6.0,5.0,2.0,3.0,14.0,94.0,52.0,-19.0,-6.0,-2.0,24.0,18.0,-16.0,-88.0,-41.0,19.0,3.0,-3.0,-52.0,-26.0,-13.0,13.0,-4.0,-5.0,-7.0,-7.0,3.0,-5.0,11.0,27.0,-10.0
343,14.0,6.0,6.0,5.0,6.0,14.0,32.0,12.0,-18.0,-4.0,-4.0,1.0,-12.0,-5.0,14.0,0.0,-38.0,1.0,9.0,21.0,-5.0,-18.0,-44.0,-17.0,44.0,0.0,-4.0,-26.0,19.0,-9.0,-42.0,-7.0,-6.0,5.0,4.0,0.0,-11.0,1.0,-84.0,-3.0,4.0,2.0,3.0,-7.0,-5.0,-14.0,108.0,8.0,-1.0,-1.0,-4.0,13.0,13.0,14.0,20.0,17.0,-32.0,-8.0,-5.0,2.0,-13.0,6.0,-66.0,-29.0
344,24.0,-5.0,-1.0,2.0,6.0,-22.0,-16.0,15.0,-27.0,-5.0,-3.0,-13.0,0.0,19.0,52.0,-4.0,39.0,-2.0,0.0,6.0,-9.0,-4.0,-18.0,-13.0,-23.0,-1.0,1.0,9.0,8.0,11.0,47.0,16.0,6.0,-1.0,-5.0,-20.0,-20.0,-11.0,-66.0,-8.0,-28.0,-11.0,-13.0,-6.0,-31.0,-36.0,-121.0,-42.0,-4.0,1.0,-1.0,-8.0,18.0,51.0,110.0,23.0,13.0,8.0,10.0,18.0,13.0,-8.0,-36.0,14.0
345,-4.0,0.0,0.0,6.0,5.0,-9.0,8.0,4.0,17.0,-1.0,-4.0,1.0,10.0,15.0,9.0,10.0,-28.0,5.0,5.0,0.0,-2.0,-20.0,-66.0,-22.0,25.0,-6.0,-4.0,-4.0,-18.0,5.0,-53.0,-5.0,-15.0,-2.0,1.0,0.0,16.0,-10.0,-14.0,7.0,-16.0,-7.0,-4.0,0.0,-1.0,6.0,86.0,-29.0,72.0,5.0,3.0,6.0,17.0,-2.0,-86.0,-8.0,-5.0,2.0,2.0,9.0,13.0,32.0,106.0,20.0
346,-11.0,2.0,0.0,-1.0,6.0,3.0,25.0,20.0,14.0,-1.0,-2.0,-2.0,-3.0,-8.0,-89.0,-7.0,-28.0,-10.0,-9.0,-11.0,-34.0,-21.0,-2.0,8.0,-6.0,5.0,5.0,5.0,24.0,11.0,12.0,-13.0,16.0,-8.0,-13.0,-14.0,-15.0,2.0,-65.0,-19.0,14.0,11.0,6.0,2.0,28.0,15.0,-45.0,5.0,-29.0,-10.0,-10.0,5.0,-20.0,-17.0,66.0,6.0,1.0,0.0,0.0,3.0,13.0,9.0,-24.0,18.0
347,-35.0,1.0,8.0,15.0,5.0,14.0,50.0,-4.0,3.0,-2.0,1.0,-11.0,-2.0,9.0,10.0,27.0,58.0,-3.0,-5.0,-11.0,-1.0,-4.0,-19.0,-6.0,-15.0,1.0,0.0,3.0,-4.0,-14.0,-31.0,-5.0,2.0,-3.0,-5.0,10.0,5.0,-7.0,11.0,-12.0,-3.0,4.0,3.0,-9.0,-24.0,-15.0,-105.0,-4.0,-39.0,2.0,0.0,-23.0,26.0,-3.0,8.0,-40.0,12.0,-6.0,-6.0,2.0,-12.0,18.0,104.0,25.0
348,12.0,2.0,2.0,3.0,6.0,26.0,52.0,-1.0,14.0,4.0,6.0,6.0,0.0,8.0,-1.0,6.0,-30.0,-3.0,-4.0,11.0,-18.0,-35.0,-128.0,-46.0,-8.0,1.0,2.0,-18.0,30.0,-23.0,-48.0,-4.0,12.0,-1.0,-4.0,-10.0,-4.0,36.0,16.0,72.0,-13.0,-4.0,-3.0,2.0,-15.0,-25.0,-22.0,-52.0,21.0,10.0,4.0,13.0,43.0,101.0,56.0,80.0,0.0,1.0,0.0,2.0,-17.0,-10.0,36.0,-14.0
349,8.0,-2.0,3.0,21.0,1.0,-14.0,-22.0,27.0,-33.0,4.0,4.0,-17.0,23.0,1.0,-73.0,17.0,50.0,-7.0,-8.0,-2.0,-27.0,-14.0,-49.0,-44.0,-23.0,-14.0,-14.0,-12.0,-29.0,-70.0,-128.0,-62.0,-17.0,9.0,11.0,-5.0,24.0,33.0,86.0,32.0,64.0,5.0,4.0,13.0,15.0,49.0,20.0,36.0,-41.0,-5.0,-1.0,11.0,2.0,-24.0,-116.0,-29.0,0.0,1.0,4.0,-2.0,3.0,26.0,-63.0,2.0
350,-12.0,-11.0,-13.0,-17.0,-41.0,-86.0,-128.0,-107.0,-10.0,-7.0,-6.0,7.0,-8.0,-32.0,108.0,67.0,23.0,13.0,10.0,-7.0,33.0,90.0,81.0,62.0,-1.0,-5.0,-1.0,7.0,7.0,15.0,-100.0,3.0,-13.0,-5.0,0.0,12.0,2.0,-23.0,-124.0,-58.0,8.0,-3.0,-9.0,-10.0,-17.0,-23.0,47.0,19.0,-20.0,1.0,3.0,-3.0,20.0,1.0,-65.0,-12.0,1.0,-7.0,-13.0,-2.0,-15.0,-10.0,-66.0,0.0
351,-32.0,2.0,10.0,9.0,-8.0,-18.0,-96.0,-41.0,5.0,-11.0,-11.0,7.0,15.0,-13.0,70.0,5.0,45.0,9.0,9.0,-3.0,2.0,32.0,89.0,40.0,-11.0,9.0,12.0,37.0,32.0,28.0,45.0,21.0,10.0,-2.0,-9.0,-66.0,-27.0,7.0,-94.0,-75.0,-20.0,-10.0,-9.0,1.0,-20.0,-37.0,37.0,26.0,-24.0,-20.0,-28.0,-70.0,-58.0,-90.0,-91.0,-101.0,27.0,13.0,6.0,9.0,28.0,65.0,92.0,74.0
352,-13.0,4.0,4.0,12.0,31.0,14.0,-71.0,-29.0,5.0,1.0,3.0,6.0,-10.0,-5.0,-113.0,-51.0,-42.0,4.0,5.0,16.0,5.0,6.0,80.0,74.0,42.0,5.0,3.0,-7.0,6.0,4.0,22.0,44.0,5.0,-4.0,-7.0,-8.0,-22.0,-18.0,-23.0,-26.0,23.0,10.0,11.0,15.0,14.0,3.0,71.0,52.0,-38.0,-8.0,3.0,26.0,-2.0,-26.0,-65.0,-8.0,-15.0,-10.0,-11.0,-32.0,-5.0,-14.0,88.0,-84.0
353,33.0,11.0,13.0,34.0,38.0,112.0,83.0,126.0,-1.0,1.0,-2.0,-22.0,-18.0,-28.0,-128.0,-104.0,2.0,3.0,4.0,10.0,-15.0,21.0,127.0,41.0,-10.0,-2.0,-6.0,10.0,36.0,-3.0,14.0,44.0,-23.0,-6.0,-5.0,-15.0,-22.0,-57.0,-120.0,-53.0,66.0,4.0,0.0,-8.0,-3.0,23.0,21.0,4.0,3.0,3.0,2.0,3.0,19.0,38.0,112.0,76.0,9.0,-2.0,4.0,25.0,-4.0,-19.0,-128.0,-98.0
354,-2.0,-2.0,-4.0,-32.0,-6.0,-26.0,120.0,48.0,-22.0,5.0,0.0,-13.0,8.0,40.0,-54.0,34.0,-3.0,-3.0,-1.0,20.0,-8.0,-48.0,-128.0,-89.0,6.0,-3.0,-7.0,-34.0,-23.0,9.0,52.0,33.0,-18.0,-3.0,0.0,19.0,-2.0,-27.0,-62.0,-53.0,-37.0,-8.0,-4.0,-6.0,0.0,12.0,127.0,-27.0,26.0,-2.0,1.0,-16.0,26.0,31.0,-120.0,5.0,49.0,16.0,10.0,6.0,12.0,51.0,77.0,99.0
355,13.0,-1.0,0.0,14.0,-8.0,-10.0,-78.0,-4.0,-9.0,-3.0,-1.0,12.0,-2.0,-21.0,-90.0,-27.0,-30.0,-11.0,-9.0,-8.0,-24.0,-59.0,21.0,-71.0,-8.0,1.0,-2.0,-21.0,-16.0,-51.0,16.0,21.0,36.0,8.0,4.0,3.0,32.0,60.0,22.0,44.0,0.0,-1.0,1.0,-2.0,5.0,16.0,-128.0,-39.0,-7.0,4.0,5.0,13.0,-5.0,-33.0,-54.0,26.0,-4.0,-4.0,-4.0,-12.0,-6.0,-27.0,-16.0,-98.0
356,-36.0,-4.0,-9.0,-22.0,-11.0,30.0,-6.0,13.0,-5.0,5.0,3.0,5.0,-3.0,-12.0,13.0,19.0,62.0,0.0,3.0,16.0,10.0,-12.0,-122.0,-29.0,-4.0,2.0,-4.0,-6.0,16.0,28.0,51.0,57.0,-16.0,-7.0,0.0,13.0,-10.0,-43.0,-98.0,-92.0,-4.0,13.0,5.0,-17.0,35.0,58.0,91.0,61.0,12.0,-9.0,-10.0,-9.0,-31.0,12.0,-119.0,-9.0,-21.0,-6.0,2.0,18.0,8.0,3.0,-23.0,-36.0
357,7.0,-4.0,-8.0,-21.0,-2.0,-35.0,-38.0,-4.0,-61.0,-19.0,-9.0,-9.0,-72.0,-84.0,-121.0,-90.0,56.0,32.0,15.0,-4.0,89.0,127.0,127.0,91.0,15.0,5.0,5.0,8.0,12.0,59.0,-128.0,-22.0,-14.0,-2.0,2.0,11.0,-14.0,11.0,-43.0,18.0,-31.0,-3.0,3.0,33.0,20.0,-41.0,-128.0,-90.0,0.0,-19.0,-12.0,-42.0,-54.0,-100.0,-54.0,-81.0,15.0,-4.0,-6.0,-21.0,-6.0,61.0,-67.0,114.0
358,-5.0,13.0,8.0,17.0,34.0,23.0,115.0,-30.0,56.0,-8.0,-3.0,-8.0,24.0,20.0,-65.0,21.0,-39.0,-6.0,-2.0,20.0,-22.0,-12.0,18.0,-48.0,8.0,7.0,8.0,8.0,-13.0,-32.0,28.0,-1.0,-78.0,-22.0,-12.0,-11.0,-24.0,-89.0,-121.0,-68.0,92.0,14.0,9.0,15.0,30.0,98.0,127.0,66.0,-24.0,1.0,-6.0,-23.0,23.0,49.0,-33.0,41.0,-15.0,-14.0,-7.0,2.0,-33.0,-83.0,13.0,-33.0
359,-14.0,7.0,4.0,1.0,-2.0,28.0,-1.0,9.0,-25.0,-10.0,-7.0,2.0,-11.0,-33.0,-50.0,-19.0,-20.0,7.0,12.0,18.0,10.0,-38.0,38.0,-39.0,-5.0,1.0,-1.0,-15.0,4.0,33.0,-128.0,-81.0,-17.0,-10.0,-9.0,7.0,17.0,16.0,110.0,64.0,16.0,8.0,4.0,-1.0,20.0,47.0,-50.0,41.0,56.0,-2.0,-5.0,2.0,-33.0,-40.0,-122.0,-52.0,-70.0,-27.0,-7.0,38.0,-3.0,-43.0,1.0,-26.0
360,27.0,8.0,-5.0,-56.0,-1.0,-3.0,-58.0,-26.0,-15.0,-9.0,-16.0,-19.0,-9.0,-11.0,69.0,4.0,-8.0,11.0,15.0,14.0,9.0,58.0,84.0,58.0,-23.0,-3.0,-1.0,4.0,3.0,-43.0,36.0,-41.0,22.0,-7.0,0.0,12.0,-17.0,6.0,-109.0,23.0,28.0,16.0,8.0,4.0,24.0,-1.0,105.0,-33.0,-28.0,-4.0,-7.0,-2.0,26.0,22.0,-27.0,42.0,10.0,4.0,0.0,-1.0,2.0,14.0,-94.0,9.0
361,14.0,3.0,2.0,7.0,-4.0,12.0,21.0,0.0,-14.0,2.0,1.0,-7.0,-31.0,-67.0,-128.0,-18.0,-103.0,11.0,10.0,28.0,6.0,-21.0,-25.0,-12.0,120.0,-7.0,-16.0,-57.0,7.0,13.0,-109.0,77.0,43.0,16.0,8.0,7.0,32.0,78.0,79.0,93.0,-18.0,-5.0,0.0,3.0,-11.0,2.0,-79.0,-30.0,2.0,-7.0,-3.0,7.0,13.0,16.0,-89.0,11.0,-50.0,1.0,3.0,20.0,-16.0,-16.0,-99.0,-34.0
362,-9.0,-2.0,1.0,-4.0,-27.0,-77.0,-97.0,-54.0,16.0,5.0,-7.0,-25.0,10.0,7.0,56.0,36.0,-28.0,-20.0,-3.0,-2.0,-4.0,-9.0,39.0,-45.0,21.0,8.0,7.0,1.0,3.0,9.0,11.0,31.0,20.0,-1.0,-1.0,5.0,18.0,5.0,28.0,12.0,-7.0,-3.0,-1.0,0.0,-28.0,-20.0,64.0,21.0,-25.0,2.0,1.0,6.0,12.0,17.0,76.0,-18.0,-8.0,-17.0,-5.0,4.0,-21.0,-24.0,-91.0,-80.0
363,63.0,15.0,-5.0,-32.0,36.0,18.0,127.0,7.0,-17.0,-2.0,2.0,11.0,-15.0,20.0,-51.0,17.0,25.0,-3.0,-9.0,-23.0,-8.0,-2.0,-54.0,4.0,-17.0,6.0,9.0,18.0,-8.0,-19.0,-21.0,31.0,-58.0,-12.0,-4.0,13.0,-18.0,-71.0,-108.0,-57.0,32.0,-25.0,-23.0,-37.0,-33.0,-25.0,53.0,2.0,43.0,20.0,7.0,5.0,64.0,87.0,127.0,58.0,-25.0,11.0,8.0,10.0,25.0,59.0,56.0,27.0
364,-17.0,2.0,0.0,7.0,-40.0,-33.0,-116.0,-20.0,-21.0,-12.0,-4.0,4.0,-6.0,-36.0,-114.0,-24.0,-75.0,-13.0,-2.0,9.0,-12.0,-27.0,-54.0,-6.0,76.0,-4.0,-8.0,-19.0,8.0,-43.0,-83.0,-46.0,-8.0,1.0,7.0,6.0,19.0,51.0,111.0,27.0,13.0,0.0,1.0,-6.0,1.0,34.0,37.0,42.0,9.0,15.0,2.0,-4.0,-7.0,10.0,-89.0,-2.0,-38.0,-12.0,-8.0,5.0,0.0,-1.0,-71.0,-26.0
365,-17.0,-4.0,3.0,6.0,-19.0,-43.0,-74.0,-21.0,11.0,18.0,1.0,10.0,30.0,11.0,83.0,55.0,24.0,-12.0,0.0,-9.0,9.0,51.0,82.0,33.0,-22.0,9.0,4.0,-1.0,-14.0,-15.0,-38.0,-66.0,-5.0,-7.0,-2.0,9.0,7.0,33.0,82.0,92.0,8.0,4.0,6.0,11.0,17.0,-26.0,-55.0,-16.0,37.0,0.0,-4.0,-2.0,-8.0,-12.0,-121.0,-17.0,22.0,-14.0,-11.0,-8.0,-11.0,-19.0,-66.0,-19.0
366,-24.0,6.0,2.0,1.0,-7.0,-7.0,-61.0,-12.0,-7.0,14.0,13.0,9.0,22.0,41.0,24.0,15.0,27.0,6.0,-2.0,11.0,8.0,22.0,107.0,21.0,-29.0,-22.0,-12.0,-10.0,17.0,21.0,-13.0,12.0,4.0,5.0,-7.0,2.0,-18.0,-37.0,34.0,-31.0,1.0,-9.0,3.0,2.0,17.0,15.0,20.0,-11.0,-35.0,-7.0,-6.0,-8.0,-33.0,-50.0,-123.0,-36.0,-12.0,3.0,-3.0,1.0,-12.0,-6.0,-45.0,-33.0
367,45.0,-1.0,7.0,8.0,23.0,71.0,50.0,67.0,-45.0,2.0,-5.0,-3.0,-4.0,-17.0,-128.0,-43.0,11.0,-6.0,-3.0,-3.0,-11.0,5.0,108.0,5.0,70.0,7.0,10.0,-6.0,20.0,-4.0,51.0,96.0,-24.0,-12.0,2.0,13.0,-26.0,6.0,-127.0,-19.0,-17.0,-2.0,-3.0,-14.0,31.0,-14.0,58.0,-18.0,-51.0,-26.0,5.0,-1.0,-64.0,-128.0,-28.0,-128.0,-14.0,31.0,16.0,-17.0,64.0,90.0,2.0,19.0
368,48.0,22.0,-14.0,-3.0,-37.0,-68.0,-128.0,-116.0,0.0,22.0,14.0,17.0,24.0,127.0,127.0,127.0,-11.0,-31.0,-6.0,8.0,-13.0,-53.0,-128.0,-63.0,3.0,6.0,-20.0,-28.0,-17.0,-18.0,-75.0,-9.0,-69.0,-29.0,0.0,-15.0,-15.0,-19.0,47.0,-22.0,70.0,40.0,5.0,0.0,34.0,26.0,104.0,72.0,-5.0,-16.0,-8.0,4.0,29.0,30.0,-72.0,-61.0,55.0,42.0,6.0,18.0,-31.0,-37.0,-19.0,75.0
369,-88.0,-7.0,-2.0,5.0,-5.0,4.0,22.0,54.0,34.0,-1.0,10.0,-20.0,39.0,37.0,84.0,-51.0,38.0,-11.0,3.0,7.0,0.0,0.0,-27.0,34.0,16.0,-1.0,-5.0,-9.0,-30.0,1.0,2.0,-56.0,-18.0,-6.0,-8.0,-8.0,-7.0,-56.0,-128.0,-59.0,-91.0,14.0,-3.0,10.0,-32.0,-24.0,109.0,42.0,103.0,-26.0,-3.0,-5.0,38.0,-4.0,14.0,27.0,-57.0,6.0,-7.0,-27.0,-41.0,-7.0,-101.0,-70.0
